"T","Distance","Radius","FreeRadius","X","Y","Z"
0.000,0.000,1.495,1.495,-45.534,115.057,168.056
0.001,0.047,1.466,1.466,-45.491,115.057,168.037
0.003,0.092,1.440,1.440,-45.450,115.056,168.019
0.004,0.133,1.416,1.416,-45.412,115.056,168.004
0.006,0.168,1.397,1.397,-45.379,115.054,167.992
0.007,0.196,1.383,1.383,-45.352,115.052,167.984
0.009,0.215,1.377,1.377,-45.333,115.049,167.981
0.010,0.226,1.379,1.379,-45.324,115.045,167.986
0.012,0.240,1.391,1.391,-45.326,115.040,167.998
0.013,0.266,1.413,1.413,-45.341,115.033,168.019
0.015,0.310,1.444,1.444,-45.370,115.024,168.050
0.016,0.372,1.484,1.484,-45.415,115.013,168.092
0.018,0.455,1.533,1.533,-45.477,115.000,168.145
0.019,0.555,1.591,1.591,-45.553,114.986,168.208
0.021,0.669,1.657,1.657,-45.641,114.969,168.278
0.022,0.792,1.730,1.730,-45.738,114.952,168.353
0.024,0.921,1.808,1.808,-45.840,114.934,168.431
0.025,1.053,1.887,1.887,-45.945,114.916,168.508
0.027,1.183,1.965,1.965,-46.049,114.897,168.583
0.028,1.308,2.040,2.040,-46.151,114.878,168.653
0.030,1.423,2.108,2.108,-46.246,114.860,168.715
0.031,1.526,2.167,2.167,-46.333,114.843,168.768
0.033,1.613,2.217,2.216,-46.407,114.827,168.809
0.034,1.681,2.258,2.257,-46.468,114.812,168.837
0.036,1.734,2.291,2.290,-46.516,114.799,168.853
0.037,1.774,2.317,2.316,-46.553,114.785,168.860
0.039,1.804,2.336,2.335,-46.580,114.771,168.862
0.040,1.829,2.349,2.349,-46.599,114.756,168.860
0.042,1.850,2.356,2.357,-46.612,114.739,168.857
0.043,1.870,2.359,2.361,-46.621,114.721,168.855
0.045,1.892,2.359,2.361,-46.626,114.700,168.858
0.046,1.919,2.356,2.358,-46.629,114.675,168.869
0.048,1.954,2.351,2.353,-46.633,114.647,168.888
0.049,2.000,2.345,2.346,-46.638,114.614,168.921
0.051,2.059,2.340,2.339,-46.646,114.577,168.967
0.052,2.132,2.335,2.332,-46.655,114.536,169.026
0.054,2.216,2.332,2.326,-46.664,114.493,169.097
0.055,2.310,2.331,2.323,-46.672,114.447,169.179
0.057,2.414,2.332,2.323,-46.676,114.400,169.271
0.058,2.525,2.337,2.329,-46.677,114.353,169.372
0.060,2.642,2.345,2.342,-46.671,114.308,169.480
0.061,2.765,2.358,2.362,-46.659,114.263,169.594
0.063,2.893,2.375,2.390,-46.637,114.222,169.714
0.064,3.026,2.395,2.424,-46.606,114.184,169.837
0.066,3.163,2.420,2.461,-46.563,114.151,169.963
0.067,3.305,2.448,2.501,-46.509,114.123,170.091
0.069,3.450,2.478,2.540,-46.445,114.100,170.218
0.070,3.596,2.512,2.578,-46.374,114.081,170.345
0.072,3.741,2.548,2.612,-46.299,114.066,170.469
0.073,3.884,2.586,2.641,-46.222,114.054,170.588
0.075,4.020,2.623,2.667,-46.147,114.045,170.702
0.076,4.149,2.657,2.690,-46.075,114.038,170.808
0.078,4.267,2.689,2.708,-46.010,114.034,170.906
0.079,4.371,2.714,2.722,-45.954,114.031,170.994
0.081,4.459,2.733,2.733,-45.909,114.028,171.070
0.082,4.529,2.744,2.741,-45.879,114.027,171.133
0.084,4.581,2.748,2.745,-45.865,114.025,171.183
0.085,4.620,2.747,2.747,-45.864,114.024,171.221
0.087,4.651,2.740,2.746,-45.875,114.025,171.251
0.088,4.681,2.731,2.743,-45.896,114.028,171.273
0.090,4.715,2.720,2.739,-45.925,114.033,171.290
0.091,4.754,2.709,2.733,-45.959,114.041,171.305
0.093,4.796,2.699,2.727,-45.997,114.053,171.319
0.094,4.842,2.689,2.720,-46.037,114.069,171.335
0.096,4.890,2.680,2.713,-46.076,114.090,171.355
0.097,4.943,2.672,2.704,-46.113,114.116,171.381
0.099,4.999,2.664,2.695,-46.146,114.147,171.415
0.100,5.063,2.656,2.686,-46.173,114.185,171.459
0.102,5.135,2.650,2.676,-46.196,114.227,171.512
0.103,5.215,2.642,2.665,-46.216,114.272,171.575
0.105,5.303,2.633,2.651,-46.233,114.319,171.648
0.106,5.399,2.621,2.634,-46.250,114.366,171.730
0.108,5.503,2.603,2.612,-46.267,114.413,171.821
0.109,5.614,2.579,2.583,-46.285,114.457,171.921
0.111,5.733,2.547,2.548,-46.305,114.498,172.031
0.112,5.859,2.506,2.504,-46.329,114.534,172.149
0.114,5.993,2.456,2.452,-46.358,114.564,172.276
0.115,6.135,2.401,2.397,-46.393,114.586,172.413
0.117,6.286,2.344,2.339,-46.434,114.600,172.557
0.118,6.443,2.286,2.283,-46.480,114.607,172.708
0.120,6.606,2.231,2.229,-46.530,114.606,172.863
0.121,6.773,2.181,2.181,-46.583,114.597,173.021
0.123,6.942,2.138,2.140,-46.638,114.582,173.180
0.124,7.111,2.101,2.106,-46.694,114.561,173.338
0.126,7.279,2.069,2.077,-46.749,114.533,173.493
0.127,7.442,2.042,2.050,-46.803,114.500,173.645
0.129,7.601,2.017,2.025,-46.855,114.462,173.790
0.130,7.753,1.994,1.998,-46.903,114.419,173.927
0.132,7.896,1.972,1.969,-46.946,114.371,174.054
0.133,8.029,1.949,1.937,-46.985,114.320,174.171
0.135,8.153,1.927,1.903,-47.019,114.267,174.277
0.136,8.267,1.905,1.867,-47.050,114.213,174.373
0.138,8.371,1.883,1.830,-47.077,114.160,174.459
0.139,8.466,1.863,1.795,-47.103,114.110,174.535
0.141,8.551,1.845,1.761,-47.128,114.063,174.602
0.142,8.625,1.828,1.729,-47.151,114.022,174.659
0.144,8.688,1.813,1.701,-47.175,113.989,174.706
0.145,8.740,1.800,1.678,-47.200,113.964,174.745
0.147,8.782,1.789,1.659,-47.227,113.949,174.774
0.148,8.818,1.778,1.645,-47.256,113.946,174.795
0.150,8.854,1.770,1.637,-47.288,113.954,174.809
0.151,8.895,1.762,1.635,-47.325,113.971,174.815
0.153,8.942,1.755,1.640,-47.366,113.993,174.817
0.154,8.995,1.748,1.650,-47.413,114.017,174.816
0.156,9.055,1.740,1.662,-47.467,114.042,174.813
0.157,9.120,1.729,1.673,-47.529,114.063,174.810
0.159,9.192,1.715,1.680,-47.600,114.078,174.809
0.160,9.273,1.695,1.680,-47.680,114.084,174.810
0.162,9.364,1.670,1.671,-47.771,114.078,174.815
0.163,9.469,1.638,1.650,-47.873,114.057,174.827
0.165,9.591,1.602,1.622,-47.987,114.018,174.846
0.166,9.730,1.564,1.589,-48.113,113.963,174.873
0.168,9.885,1.527,1.556,-48.247,113.896,174.907
0.169,10.049,1.494,1.527,-48.388,113.822,174.948
0.171,10.219,1.466,1.505,-48.533,113.745,174.995
0.172,10.391,1.448,1.496,-48.678,113.672,175.047
0.174,10.559,1.439,1.499,-48.823,113.605,175.105
0.175,10.722,1.436,1.511,-48.963,113.551,175.166
0.177,10.874,1.436,1.528,-49.096,113.514,175.231
0.178,11.017,1.434,1.544,-49.221,113.500,175.298
0.180,11.150,1.428,1.556,-49.333,113.512,175.368
0.181,11.279,1.414,1.559,-49.431,113.556,175.440
0.183,11.412,1.388,1.548,-49.515,113.631,175.512
0.184,11.556,1.351,1.524,-49.586,113.732,175.584
0.186,11.710,1.308,1.491,-49.646,113.855,175.656
0.187,11.875,1.264,1.454,-49.696,113.995,175.727
0.189,12.046,1.224,1.416,-49.739,114.146,175.796
0.190,12.222,1.192,1.381,-49.777,114.304,175.862
0.192,12.396,1.174,1.354,-49.810,114.463,175.925
0.193,12.566,1.174,1.339,-49.842,114.620,175.984
0.195,12.727,1.189,1.334,-49.873,114.768,176.039
0.196,12.875,1.215,1.337,-49.906,114.903,176.088
0.198,13.005,1.247,1.345,-49.942,115.021,176.131
0.199,13.117,1.281,1.355,-49.981,115.119,176.167
0.201,13.214,1.311,1.365,-50.022,115.201,176.198
0.202,13.296,1.333,1.372,-50.064,115.267,176.222
0.204,13.366,1.344,1.373,-50.105,115.320,176.241
0.205,13.424,1.345,1.370,-50.144,115.361,176.255
0.207,13.473,1.340,1.363,-50.180,115.393,176.263
0.208,13.512,1.330,1.355,-50.212,115.417,176.267
0.210,13.543,1.320,1.347,-50.237,115.434,176.265
0.211,13.567,1.311,1.340,-50.255,115.448,176.259
0.213,13.585,1.308,1.335,-50.265,115.459,176.249
0.214,13.603,1.310,1.333,-50.265,115.469,176.234
0.216,13.624,1.315,1.334,-50.256,115.478,176.217
0.217,13.647,1.322,1.334,-50.241,115.485,176.201
0.219,13.671,1.328,1.334,-50.220,115.487,176.190
0.220,13.694,1.330,1.332,-50.197,115.484,176.185
0.222,13.721,1.326,1.326,-50.174,115.472,176.191
0.223,13.758,1.314,1.316,-50.151,115.451,176.211
0.225,13.810,1.294,1.300,-50.133,115.419,176.247
0.226,13.883,1.268,1.281,-50.120,115.374,176.303
0.228,13.982,1.237,1.258,-50.114,115.315,176.382
0.229,14.111,1.204,1.233,-50.119,115.239,176.487
0.231,14.275,1.170,1.206,-50.135,115.145,176.621
0.232,14.471,1.138,1.179,-50.162,115.036,176.781
0.234,14.691,1.110,1.152,-50.198,114.913,176.960
0.235,14.929,1.087,1.126,-50.240,114.781,177.153
0.237,15.177,1.068,1.102,-50.286,114.642,177.354
0.238,15.429,1.055,1.083,-50.333,114.499,177.556
0.240,15.676,1.049,1.070,-50.379,114.357,177.753
0.241,15.912,1.049,1.063,-50.422,114.218,177.939
0.243,16.130,1.056,1.065,-50.460,114.085,178.107
0.244,16.323,1.070,1.075,-50.490,113.962,178.253
0.246,16.484,1.091,1.092,-50.510,113.852,178.369
0.247,16.609,1.114,1.114,-50.517,113.757,178.450
0.249,16.702,1.138,1.138,-50.513,113.677,178.497
0.250,16.774,1.162,1.162,-50.499,113.609,178.516
0.251,16.836,1.182,1.182,-50.478,113.551,178.511
0.253,16.900,1.197,1.198,-50.452,113.498,178.487
0.254,16.968,1.206,1.206,-50.423,113.448,178.449
0.256,17.042,1.209,1.209,-50.393,113.399,178.403
0.257,17.120,1.206,1.207,-50.365,113.348,178.352
0.259,17.199,1.199,1.199,-50.341,113.290,178.303
0.260,17.280,1.188,1.188,-50.322,113.225,178.259
0.262,17.365,1.173,1.173,-50.312,113.148,178.226
0.263,17.457,1.156,1.156,-50.311,113.058,178.208
0.265,17.560,1.138,1.138,-50.321,112.955,178.207
0.266,17.673,1.122,1.122,-50.342,112.845,178.220
0.268,17.795,1.112,1.111,-50.373,112.729,178.247
0.269,17.924,1.109,1.108,-50.414,112.613,178.286
0.271,18.059,1.117,1.116,-50.465,112.500,178.336
0.272,18.197,1.139,1.139,-50.527,112.393,178.397
0.274,18.336,1.176,1.177,-50.598,112.295,178.467
0.275,18.476,1.228,1.230,-50.680,112.212,178.544
0.277,18.616,1.290,1.296,-50.771,112.146,178.628
0.278,18.758,1.359,1.370,-50.872,112.101,178.718
0.280,18.905,1.431,1.451,-50.982,112.079,178.812
0.281,19.057,1.503,1.536,-51.099,112.080,178.909
0.283,19.217,1.571,1.621,-51.222,112.099,179.009
0.284,19.381,1.633,1.704,-51.347,112.133,179.111
0.286,19.549,1.688,1.783,-51.473,112.177,179.213
0.287,19.717,1.738,1.855,-51.596,112.229,179.314
0.289,19.882,1.782,1.920,-51.715,112.283,179.415
0.290,20.041,1.822,1.974,-51.827,112.337,179.513
0.292,20.189,1.858,2.017,-51.930,112.387,179.608
0.293,20.324,1.891,2.046,-52.021,112.429,179.699
0.295,20.443,1.921,2.062,-52.097,112.458,179.785
0.296,20.545,1.949,2.068,-52.158,112.473,179.866
0.298,20.632,1.977,2.067,-52.203,112.474,179.940
0.299,20.709,2.003,2.064,-52.236,112.463,180.009
0.301,20.779,2.029,2.061,-52.258,112.442,180.071
0.302,20.843,2.056,2.064,-52.271,112.414,180.128
0.304,20.905,2.083,2.075,-52.277,112.381,180.180
0.305,20.963,2.112,2.095,-52.278,112.345,180.226
0.307,21.018,2.140,2.120,-52.277,112.309,180.266
0.308,21.067,2.167,2.149,-52.276,112.274,180.301
0.310,21.110,2.191,2.178,-52.276,112.243,180.331
0.311,21.144,2.212,2.205,-52.280,112.219,180.356
0.313,21.171,2.228,2.227,-52.289,112.203,180.375
0.314,21.194,2.239,2.242,-52.304,112.194,180.390
0.316,21.219,2.245,2.250,-52.326,112.192,180.400
0.317,21.249,2.249,2.254,-52.355,112.196,180.406
0.319,21.286,2.252,2.256,-52.391,112.205,180.409
0.320,21.332,2.255,2.258,-52.435,112.218,180.409
0.322,21.386,2.261,2.262,-52.487,112.233,180.407
0.323,21.448,2.270,2.270,-52.547,112.251,180.402
0.325,21.520,2.284,2.283,-52.615,112.270,180.395
0.326,21.600,2.303,2.301,-52.693,112.289,180.387
0.328,21.690,2.326,2.325,-52.780,112.307,180.378
0.329,21.788,2.353,2.352,-52.876,112.323,180.368
0.331,21.894,2.384,2.383,-52.981,112.337,180.359
0.332,22.005,2.418,2.418,-53.092,112.348,180.349
0.334,22.121,2.454,2.454,-53.207,112.355,180.340
0.335,22.240,2.492,2.492,-53.325,112.357,180.332
0.337,22.359,2.529,2.529,-53.444,112.354,180.325
0.338,22.478,2.563,2.564,-53.563,112.345,180.319
0.340,22.595,2.593,2.593,-53.679,112.330,180.315
0.341,22.710,2.615,2.615,-53.791,112.307,180.314
0.343,22.820,2.627,2.627,-53.897,112.277,180.314
0.344,22.926,2.629,2.628,-53.995,112.237,180.318
0.346,23.028,2.619,2.619,-54.085,112.189,180.324
0.347,23.127,2.600,2.600,-54.167,112.134,180.331
0.349,23.224,2.576,2.576,-54.242,112.072,180.336
0.350,23.320,2.547,2.547,-54.311,112.007,180.338
0.352,23.414,2.518,2.518,-54.377,111.940,180.333
0.353,23.507,2.490,2.490,-54.439,111.872,180.319
0.355,23.600,2.465,2.465,-54.499,111.805,180.294
0.356,23.696,2.444,2.444,-54.559,111.741,180.256
0.358,23.796,2.426,2.427,-54.620,111.682,180.202
0.359,23.905,2.411,2.411,-54.683,111.630,180.130
0.361,24.027,2.398,2.398,-54.749,111.586,180.038
0.362,24.165,2.387,2.387,-54.819,111.551,179.924
0.364,24.319,2.376,2.376,-54.893,111.525,179.791
0.365,24.487,2.367,2.367,-54.971,111.506,179.644
0.367,24.666,2.358,2.358,-55.053,111.493,179.485
0.368,24.852,2.350,2.350,-55.138,111.485,179.319
0.370,25.044,2.344,2.344,-55.226,111.480,179.149
0.371,25.237,2.339,2.339,-55.317,111.478,178.979
0.373,25.428,2.337,2.337,-55.410,111.477,178.812
0.374,25.614,2.336,2.336,-55.506,111.476,178.653
0.376,25.792,2.338,2.338,-55.604,111.473,178.505
0.377,25.959,2.342,2.342,-55.704,111.467,178.371
0.379,26.113,2.347,2.347,-55.805,111.458,178.254
0.380,26.257,2.352,2.352,-55.907,111.446,178.154
0.382,26.389,2.357,2.357,-56.007,111.432,178.068
0.383,26.512,2.361,2.361,-56.105,111.416,177.996
0.385,26.625,2.364,2.364,-56.200,111.398,177.936
0.386,26.729,2.364,2.364,-56.289,111.380,177.887
0.388,26.823,2.364,2.364,-56.372,111.362,177.848
0.389,26.907,2.362,2.362,-56.448,111.345,177.816
0.391,26.980,2.358,2.358,-56.516,111.329,177.791
0.392,27.042,2.354,2.354,-56.573,111.315,177.772
0.394,27.092,2.349,2.349,-56.619,111.303,177.756
0.395,27.130,2.344,2.344,-56.653,111.294,177.743
0.397,27.157,2.338,2.338,-56.677,111.288,177.733
0.398,27.174,2.333,2.333,-56.691,111.286,177.723
0.400,27.184,2.329,2.329,-56.698,111.286,177.716
0.401,27.192,2.326,2.326,-56.698,111.290,177.708
0.403,27.203,2.326,2.326,-56.694,111.296,177.701
0.404,27.217,2.329,2.329,-56.686,111.306,177.694
0.406,27.235,2.335,2.335,-56.676,111.318,177.685
0.407,27.256,2.343,2.343,-56.666,111.334,177.675
0.409,27.281,2.352,2.352,-56.657,111.353,177.663
0.410,27.308,2.362,2.362,-56.650,111.375,177.649
0.412,27.338,2.371,2.371,-56.647,111.399,177.631
0.413,27.372,2.379,2.379,-56.647,111.426,177.611
0.415,27.409,2.385,2.385,-56.652,111.455,177.588
0.416,27.449,2.387,2.387,-56.660,111.484,177.563
0.418,27.492,2.388,2.388,-56.674,111.514,177.534
0.419,27.538,2.386,2.386,-56.692,111.543,177.504
0.421,27.587,2.382,2.382,-56.715,111.571,177.470
0.422,27.640,2.376,2.376,-56.743,111.597,177.434
0.424,27.696,2.369,2.369,-56.777,111.620,177.396
0.425,27.756,2.360,2.360,-56.816,111.640,177.356
0.427,27.820,2.350,2.350,-56.862,111.656,177.313
0.428,27.890,2.339,2.339,-56.914,111.668,177.267
0.430,27.968,2.326,2.326,-56.974,111.675,177.218
0.431,28.056,2.311,2.311,-57.043,111.677,177.164
0.433,28.157,2.294,2.294,-57.124,111.674,177.105
0.434,28.272,2.275,2.274,-57.218,111.666,177.038
0.436,28.403,2.253,2.253,-57.325,111.653,176.963
0.437,28.554,2.232,2.232,-57.448,111.634,176.879
0.439,28.724,2.216,2.217,-57.589,111.609,176.785
0.440,28.918,2.211,2.211,-57.747,111.579,176.679
0.442,29.135,2.220,2.220,-57.927,111.543,176.561
0.443,29.379,2.248,2.248,-58.127,111.501,176.429
0.445,29.648,2.300,2.300,-58.349,111.453,176.284
0.446,29.937,2.377,2.377,-58.587,111.400,176.129
0.448,30.239,2.475,2.475,-58.836,111.341,175.969
0.449,30.549,2.590,2.589,-59.093,111.278,175.806
0.451,30.861,2.715,2.714,-59.351,111.211,175.646
0.452,31.169,2.845,2.845,-59.607,111.141,175.490
0.454,31.466,2.976,2.975,-59.856,111.068,175.344
0.455,31.748,3.100,3.101,-60.092,110.992,175.210
0.457,32.009,3.216,3.217,-60.311,110.914,175.092
0.458,32.243,3.322,3.324,-60.509,110.835,174.995
0.460,32.445,3.418,3.420,-60.680,110.756,174.922
0.461,32.616,3.501,3.504,-60.823,110.675,174.873
0.463,32.760,3.572,3.574,-60.939,110.595,174.845
0.464,32.882,3.630,3.631,-61.031,110.515,174.836
0.466,32.987,3.673,3.672,-61.100,110.437,174.843
0.467,33.080,3.704,3.700,-61.150,110.360,174.861
0.469,33.166,3.725,3.717,-61.181,110.285,174.888
0.470,33.247,3.737,3.728,-61.197,110.212,174.920
0.472,33.325,3.744,3.735,-61.199,110.142,174.954
0.473,33.400,3.749,3.742,-61.189,110.076,174.988
0.475,33.472,3.753,3.752,-61.170,110.013,175.017
0.476,33.539,3.759,3.768,-61.144,109.955,175.038
0.478,33.603,3.768,3.789,-61.113,109.900,175.050
0.479,33.663,3.780,3.814,-61.082,109.848,175.053
0.481,33.721,3.794,3.842,-61.055,109.798,175.047
0.482,33.778,3.810,3.869,-61.034,109.747,175.032
0.484,33.836,3.829,3.896,-61.025,109.695,175.007
0.485,33.901,3.850,3.920,-61.031,109.640,174.974
0.487,33.977,3.874,3.939,-61.056,109.581,174.932
0.488,34.072,3.900,3.957,-61.104,109.517,174.882
0.490,34.191,3.928,3.973,-61.178,109.445,174.823
0.491,34.340,3.957,3.989,-61.284,109.365,174.756
0.493,34.522,3.989,4.007,-61.423,109.275,174.680
0.494,34.738,4.022,4.028,-61.596,109.177,174.597
0.496,34.980,4.056,4.053,-61.796,109.072,174.510
0.497,35.241,4.091,4.083,-62.015,108.963,174.418
0.499,35.514,4.125,4.116,-62.247,108.852,174.326
0.500,35.791,4.156,4.147,-62.485,108.743,174.235
0.501,36.065,4.182,4.175,-62.722,108.638,174.147
0.503,36.328,4.201,4.198,-62.952,108.539,174.063
0.504,36.573,4.213,4.212,-63.166,108.450,173.987
0.506,36.792,4.214,4.215,-63.359,108.372,173.920
0.507,36.977,4.206,4.208,-63.524,108.308,173.864
0.509,37.121,4.192,4.195,-63.654,108.262,173.821
0.510,37.224,4.176,4.178,-63.747,108.232,173.791
0.512,37.290,4.160,4.162,-63.808,108.216,173.773
0.513,37.324,4.147,4.148,-63.841,108.211,173.764
0.515,37.334,4.140,4.140,-63.850,108.215,173.763
0.516,37.349,4.142,4.142,-63.840,108.225,173.768
0.518,37.380,4.151,4.150,-63.813,108.237,173.777
0.519,37.422,4.163,4.163,-63.776,108.251,173.788
0.521,37.469,4.176,4.175,-63.731,108.262,173.799
0.522,37.519,4.185,4.185,-63.682,108.268,173.809
0.524,37.567,4.188,4.188,-63.635,108.266,173.816
0.525,37.611,4.182,4.182,-63.593,108.255,173.818
0.527,37.651,4.164,4.164,-63.558,108.234,173.815
0.528,37.688,4.138,4.138,-63.535,108.207,173.806
0.530,37.721,4.108,4.108,-63.524,108.179,173.793
0.531,37.752,4.077,4.077,-63.529,108.153,173.776
0.533,37.788,4.049,4.049,-63.551,108.134,173.755
0.534,37.838,4.028,4.029,-63.594,108.125,173.731
0.536,37.908,4.019,4.019,-63.659,108.130,173.705
0.537,38.005,4.021,4.021,-63.749,108.153,173.678
0.539,38.134,4.034,4.034,-63.866,108.198,173.648
0.540,38.299,4.056,4.056,-64.013,108.269,173.618
0.542,38.506,4.084,4.084,-64.192,108.369,173.588
0.543,38.751,4.116,4.116,-64.399,108.497,173.558
0.545,39.026,4.150,4.150,-64.627,108.646,173.527
0.546,39.322,4.185,4.185,-64.871,108.812,173.497
0.548,39.631,4.219,4.219,-65.122,108.988,173.467
0.549,39.943,4.249,4.249,-65.375,109.168,173.436
0.551,40.249,4.275,4.275,-65.621,109.348,173.406
0.552,40.541,4.294,4.294,-65.855,109.520,173.377
0.554,40.810,4.306,4.306,-66.070,109.680,173.347
0.555,41.047,4.308,4.308,-66.258,109.820,173.318
0.557,41.243,4.299,4.299,-66.412,109.937,173.289
0.558,41.390,4.282,4.282,-66.528,110.024,173.261
0.560,41.490,4.259,4.259,-66.606,110.081,173.235
0.561,41.554,4.235,4.235,-66.655,110.114,173.211
0.563,41.590,4.211,4.211,-66.683,110.126,173.193
0.564,41.610,4.191,4.191,-66.699,110.120,173.181
0.566,41.632,4.179,4.179,-66.710,110.102,173.177
0.567,41.663,4.176,4.176,-66.725,110.075,173.183
0.569,41.708,4.181,4.181,-66.752,110.044,173.200
0.570,41.772,4.191,4.191,-66.798,110.012,173.231
0.572,41.863,4.204,4.204,-66.872,109.984,173.276
0.573,41.991,4.218,4.218,-66.982,109.963,173.338
0.575,42.164,4.232,4.232,-67.135,109.954,173.418
0.576,42.380,4.243,4.243,-67.330,109.958,173.512
0.578,42.631,4.250,4.250,-67.557,109.973,173.617
0.579,42.909,4.253,4.253,-67.811,109.998,173.728
0.581,43.205,4.252,4.252,-68.083,110.033,173.839
0.582,43.511,4.249,4.249,-68.366,110.077,173.947
0.584,43.818,4.244,4.244,-68.652,110.129,174.046
0.585,44.118,4.236,4.236,-68.933,110.187,174.132
0.587,44.404,4.227,4.227,-69.203,110.251,174.200
0.588,44.667,4.218,4.218,-69.454,110.319,174.246
0.590,44.903,4.208,4.208,-69.677,110.392,174.264
0.591,45.108,4.199,4.199,-69.867,110.468,174.251
0.593,45.290,4.192,4.192,-70.026,110.545,174.206
0.594,45.458,4.187,4.187,-70.157,110.622,174.134
0.596,45.624,4.186,4.186,-70.267,110.698,174.035
0.597,45.794,4.188,4.188,-70.361,110.770,173.914
0.599,45.971,4.192,4.192,-70.445,110.838,173.773
0.600,46.158,4.195,4.195,-70.523,110.899,173.615
0.602,46.356,4.196,4.196,-70.602,110.952,173.441
0.603,46.563,4.190,4.190,-70.686,110.995,173.256
0.605,46.782,4.176,4.176,-70.781,111.027,173.062
0.606,47.012,4.151,4.151,-70.892,111.046,172.862
0.608,47.256,4.114,4.114,-71.025,111.051,172.657
0.609,47.511,4.068,4.068,-71.176,111.044,172.452
0.611,47.775,4.016,4.016,-71.343,111.025,172.248
