"T","Distance","Radius","FreeRadius","X","Y","Z"
0.000,0.000,1.495,1.495,-45.534,115.057,168.056
0.003,0.049,1.466,1.466,-45.489,115.056,168.037
0.006,0.095,1.438,1.438,-45.445,115.056,168.020
0.008,0.137,1.415,1.415,-45.406,115.054,168.005
0.011,0.172,1.396,1.396,-45.373,115.053,167.994
0.014,0.199,1.384,1.384,-45.347,115.050,167.988
0.017,0.215,1.382,1.382,-45.331,115.046,167.989
0.020,0.226,1.391,1.391,-45.326,115.041,167.997
0.022,0.247,1.413,1.413,-45.335,115.035,168.014
0.025,0.284,1.447,1.447,-45.360,115.026,168.041
0.028,0.342,1.489,1.489,-45.402,115.016,168.080
0.031,0.422,1.538,1.538,-45.463,115.003,168.131
0.034,0.523,1.591,1.591,-45.540,114.989,168.193
0.036,0.640,1.649,1.649,-45.632,114.973,168.264
0.039,0.768,1.713,1.713,-45.733,114.955,168.341
0.042,0.904,1.786,1.786,-45.842,114.936,168.421
0.045,1.043,1.866,1.866,-45.953,114.917,168.502
0.048,1.182,1.951,1.951,-46.065,114.897,168.581
0.050,1.316,2.041,2.041,-46.174,114.876,168.656
0.053,1.440,2.132,2.132,-46.276,114.856,168.725
0.056,1.552,2.216,2.216,-46.367,114.836,168.785
0.059,1.646,2.282,2.282,-46.446,114.817,168.834
0.062,1.722,2.321,2.321,-46.510,114.799,168.870
0.064,1.783,2.331,2.331,-46.561,114.781,168.897
0.067,1.829,2.323,2.323,-46.601,114.763,168.914
0.070,1.865,2.309,2.309,-46.629,114.744,168.925
0.073,1.892,2.298,2.298,-46.647,114.725,168.929
0.076,1.914,2.296,2.296,-46.657,114.705,168.929
0.078,1.936,2.300,2.300,-46.659,114.683,168.926
0.081,1.960,2.313,2.313,-46.655,114.660,168.922
0.084,1.987,2.331,2.331,-46.645,114.636,168.917
0.087,2.017,2.348,2.348,-46.631,114.608,168.914
0.090,2.050,2.355,2.355,-46.614,114.580,168.912
0.092,2.081,2.345,2.345,-46.597,114.554,168.910
0.095,2.107,2.322,2.322,-46.582,114.534,168.908
0.098,2.124,2.300,2.300,-46.571,114.523,168.902
0.101,2.134,2.294,2.294,-46.567,114.523,168.892
0.104,2.157,2.312,2.312,-46.572,114.540,168.877
0.106,2.202,2.339,2.339,-46.589,114.575,168.855
0.109,2.274,2.352,2.352,-46.620,114.632,168.823
0.112,2.378,2.327,2.327,-46.666,114.715,168.782
0.115,2.518,2.257,2.257,-46.732,114.827,168.730
0.118,2.695,2.155,2.155,-46.817,114.968,168.665
0.120,2.904,2.036,2.036,-46.919,115.134,168.588
0.123,3.139,1.915,1.915,-47.036,115.317,168.500
0.126,3.393,1.804,1.804,-47.164,115.513,168.400
0.129,3.661,1.712,1.712,-47.301,115.715,168.289
0.132,3.937,1.649,1.649,-47.443,115.918,168.168
0.134,4.214,1.618,1.618,-47.588,116.114,168.038
0.137,4.487,1.607,1.607,-47.733,116.299,167.897
0.140,4.752,1.602,1.602,-47.876,116.466,167.748
0.143,5.005,1.587,1.587,-48.012,116.608,167.590
0.146,5.244,1.559,1.559,-48.141,116.723,167.425
0.148,5.471,1.526,1.526,-48.258,116.814,167.254
0.151,5.687,1.496,1.496,-48.363,116.888,167.080
0.154,5.893,1.477,1.477,-48.454,116.950,166.906
0.157,6.088,1.472,1.472,-48.528,117.006,166.734
0.160,6.272,1.482,1.482,-48.583,117.063,166.568
0.162,6.447,1.511,1.511,-48.618,117.128,166.409
0.165,6.615,1.553,1.553,-48.630,117.205,166.261
0.168,6.782,1.590,1.590,-48.618,117.301,166.125
0.171,6.957,1.602,1.602,-48.578,117.423,166.006
0.174,7.152,1.572,1.572,-48.511,117.575,165.904
0.176,7.369,1.516,1.516,-48.420,117.754,165.820
0.179,7.605,1.466,1.466,-48.309,117.951,165.753
0.182,7.852,1.453,1.453,-48.185,118.159,165.702
0.185,8.103,1.498,1.498,-48.054,118.370,165.665
0.188,8.350,1.581,1.581,-47.921,118.576,165.641
0.190,8.582,1.673,1.673,-47.792,118.769,165.630
0.193,8.792,1.747,1.747,-47.673,118.941,165.630
0.196,8.970,1.793,1.793,-47.569,119.085,165.640
0.199,9.107,1.814,1.814,-47.486,119.193,165.658
0.202,9.196,1.817,1.817,-47.429,119.257,165.684
0.204,9.246,1.807,1.807,-47.398,119.280,165.715
0.207,9.281,1.791,1.791,-47.388,119.272,165.748
0.210,9.323,1.776,1.776,-47.394,119.242,165.778
0.213,9.374,1.766,1.766,-47.409,119.201,165.802
0.216,9.423,1.767,1.767,-47.431,119.159,165.816
0.218,9.463,1.774,1.774,-47.452,119.125,165.818
0.221,9.490,1.786,1.786,-47.469,119.111,165.802
0.224,9.529,1.801,1.801,-47.475,119.125,165.766
0.227,9.610,1.818,1.818,-47.467,119.177,165.705
0.230,9.748,1.844,1.844,-47.438,119.279,165.617
0.232,9.944,1.882,1.882,-47.388,119.430,165.502
0.235,10.190,1.939,1.939,-47.320,119.622,165.364
0.238,10.472,2.018,2.018,-47.237,119.844,165.210
0.241,10.779,2.128,2.128,-47.145,120.086,165.046
0.244,11.097,2.274,2.274,-47.046,120.337,164.878
0.246,11.415,2.445,2.445,-46.945,120.588,164.711
0.249,11.721,2.613,2.613,-46.846,120.829,164.550
0.252,12.001,2.748,2.748,-46.752,121.048,164.403
0.255,12.244,2.825,2.825,-46.668,121.236,164.275
0.258,12.437,2.852,2.852,-46.596,121.382,164.170
0.261,12.574,2.848,2.848,-46.541,121.481,164.093
0.263,12.663,2.831,2.831,-46.500,121.538,164.039
0.266,12.713,2.817,2.817,-46.471,121.559,164.003
0.269,12.743,2.813,2.813,-46.455,121.550,163.980
0.272,12.779,2.823,2.823,-46.448,121.518,163.965
0.275,12.830,2.854,2.854,-46.449,121.469,163.953
0.277,12.892,2.902,2.902,-46.457,121.409,163.938
0.280,12.961,2.955,2.955,-46.470,121.345,163.916
0.283,13.035,3.004,3.004,-46.487,121.282,163.882
0.286,13.112,3.041,3.041,-46.506,121.227,163.831
0.289,13.198,3.064,3.064,-46.526,121.186,163.758
0.291,13.297,3.074,3.074,-46.546,121.156,163.666
0.294,13.409,3.071,3.071,-46.567,121.136,163.558
0.297,13.532,3.059,3.059,-46.587,121.124,163.437
0.300,13.665,3.045,3.045,-46.607,121.118,163.306
0.303,13.804,3.033,3.033,-46.627,121.115,163.168
0.305,13.947,3.029,3.029,-46.647,121.113,163.027
0.308,14.090,3.030,3.030,-46.665,121.110,162.885
0.311,14.231,3.028,3.028,-46.683,121.103,162.745
0.314,14.366,3.017,3.017,-46.700,121.091,162.611
0.317,14.494,2.992,2.992,-46.716,121.071,162.486
0.319,14.615,2.963,2.963,-46.731,121.044,162.370
0.322,14.729,2.938,2.938,-46.746,121.010,162.262
0.325,14.839,2.924,2.924,-46.763,120.969,162.161
0.328,14.946,2.923,2.923,-46.781,120.923,162.067
0.331,15.050,2.929,2.929,-46.803,120.871,161.979
0.333,15.153,2.935,2.935,-46.828,120.816,161.896
0.336,15.256,2.939,2.939,-46.858,120.756,161.817
0.339,15.360,2.939,2.939,-46.893,120.694,161.742
0.342,15.465,2.937,2.937,-46.935,120.629,161.670
0.345,15.573,2.935,2.935,-46.984,120.563,161.600
0.347,15.682,2.934,2.934,-47.038,120.496,161.532
0.350,15.790,2.934,2.934,-47.093,120.431,161.466
0.353,15.894,2.936,2.936,-47.146,120.368,161.403
0.356,15.989,2.940,2.940,-47.192,120.310,161.342
0.359,16.075,2.946,2.946,-47.227,120.259,161.284
0.361,16.148,2.952,2.952,-47.249,120.216,161.229
0.364,16.210,2.958,2.958,-47.252,120.183,161.177
0.367,16.267,2.964,2.964,-47.234,120.161,161.128
0.370,16.331,2.969,2.969,-47.189,120.152,161.083
0.373,16.416,2.975,2.975,-47.115,120.158,161.041
0.375,16.528,2.982,2.982,-47.012,120.179,161.002
0.378,16.662,2.991,2.991,-46.888,120.210,160.963
0.381,16.812,3.002,3.002,-46.750,120.249,160.920
0.384,16.969,3.016,3.016,-46.607,120.292,160.871
0.387,17.127,3.033,3.033,-46.466,120.335,160.813
0.389,17.281,3.048,3.048,-46.334,120.374,160.744
0.392,17.427,3.058,3.058,-46.221,120.408,160.659
0.395,17.564,3.056,3.056,-46.133,120.430,160.556
0.398,17.699,3.041,3.041,-46.079,120.439,160.433
0.401,17.846,3.012,3.012,-46.065,120.431,160.286
0.403,18.022,2.971,2.971,-46.097,120.404,160.116
0.406,18.230,2.919,2.919,-46.167,120.360,159.925
0.409,18.466,2.866,2.866,-46.269,120.303,159.720
0.412,18.723,2.827,2.827,-46.396,120.236,159.506
0.415,18.995,2.816,2.816,-46.540,120.163,159.288
0.417,19.272,2.842,2.842,-46.695,120.086,159.071
0.420,19.546,2.892,2.892,-46.853,120.008,158.861
0.423,19.808,2.951,2.951,-47.007,119.933,158.663
0.426,20.049,3.005,3.005,-47.151,119.864,158.482
0.429,20.260,3.048,3.048,-47.276,119.804,158.324
0.431,20.434,3.080,3.080,-47.378,119.756,158.192
0.434,20.574,3.102,3.102,-47.458,119.718,158.083
0.437,20.685,3.114,3.114,-47.518,119.687,157.995
0.440,20.772,3.122,3.122,-47.560,119.662,157.922
0.443,20.842,3.132,3.132,-47.588,119.640,157.863
0.445,20.900,3.152,3.152,-47.604,119.620,157.811
0.448,20.951,3.183,3.183,-47.611,119.597,157.765
0.451,21.004,3.217,3.217,-47.611,119.571,157.720
0.454,21.062,3.247,3.247,-47.608,119.539,157.672
0.457,21.130,3.268,3.268,-47.602,119.499,157.617
0.459,21.212,3.279,3.279,-47.598,119.448,157.553
0.462,21.307,3.285,3.285,-47.595,119.389,157.479
0.465,21.412,3.290,3.290,-47.594,119.322,157.398
0.468,21.524,3.298,3.298,-47.593,119.251,157.311
0.471,21.639,3.305,3.305,-47.593,119.177,157.223
0.473,21.755,3.311,3.311,-47.593,119.103,157.133
0.476,21.869,3.312,3.312,-47.592,119.031,157.045
0.479,21.977,3.310,3.310,-47.592,118.963,156.961
0.482,22.076,3.305,3.305,-47.590,118.902,156.884
0.485,22.163,3.300,3.300,-47.588,118.849,156.814
0.487,22.236,3.297,3.297,-47.584,118.807,156.755
0.490,22.293,3.296,3.296,-47.579,118.777,156.706
0.493,22.338,3.296,3.296,-47.573,118.755,156.667
0.496,22.372,3.297,3.297,-47.567,118.742,156.637
0.499,22.396,3.298,3.298,-47.562,118.735,156.615
0.501,22.412,3.300,3.300,-47.558,118.732,156.599
0.504,22.422,3.303,3.303,-47.556,118.733,156.589
0.507,22.427,3.308,3.308,-47.557,118.735,156.585
0.510,22.431,3.313,3.313,-47.560,118.737,156.584
0.513,22.439,3.319,3.319,-47.568,118.737,156.586
0.515,22.451,3.322,3.322,-47.579,118.734,156.589
0.518,22.468,3.322,3.322,-47.594,118.728,156.594
0.521,22.488,3.320,3.320,-47.611,118.719,156.599
0.524,22.507,3.317,3.317,-47.628,118.709,156.602
0.527,22.525,3.313,3.313,-47.642,118.698,156.603
0.529,22.539,3.311,3.311,-47.652,118.689,156.601
0.532,22.550,3.311,3.311,-47.656,118.682,156.595
0.535,22.563,3.313,3.313,-47.651,118.678,156.583
0.538,22.586,3.316,3.316,-47.636,118.678,156.565
0.541,22.624,3.317,3.317,-47.609,118.684,156.540
0.543,22.679,3.306,3.306,-47.567,118.697,156.507
0.546,22.752,3.276,3.276,-47.511,118.716,156.464
0.549,22.837,3.227,3.227,-47.448,118.736,156.410
0.552,22.930,3.171,3.171,-47.385,118.754,156.344
0.555,23.028,3.124,3.124,-47.328,118.763,156.265
0.557,23.131,3.098,3.098,-47.285,118.759,156.172
0.560,23.245,3.100,3.100,-47.264,118.736,156.062
0.563,23.379,3.135,3.135,-47.271,118.691,155.936
0.566,23.547,3.206,3.206,-47.314,118.617,155.791
0.569,23.761,3.308,3.308,-47.400,118.511,155.626
0.571,24.033,3.418,3.418,-47.535,118.366,155.441
0.574,24.369,3.510,3.510,-47.725,118.180,155.235
0.577,24.761,3.555,3.555,-47.961,117.960,155.012
0.580,25.195,3.559,3.559,-48.233,117.715,154.778
0.583,25.657,3.563,3.563,-48.529,117.453,154.540
0.585,26.132,3.610,3.610,-48.839,117.183,154.302
0.588,26.604,3.733,3.733,-49.151,116.914,154.071
0.591,27.060,3.913,3.913,-49.455,116.654,153.852
0.594,27.485,4.107,4.107,-49.741,116.412,153.652
0.597,27.862,4.272,4.272,-49.996,116.198,153.475
0.599,28.178,4.383,4.383,-50.211,116.020,153.328
0.602,28.418,4.445,4.445,-50.376,115.885,153.215
0.605,28.588,4.466,4.466,-50.492,115.790,153.135
0.608,28.698,4.457,4.457,-50.566,115.729,153.083
0.611,28.758,4.431,4.431,-50.604,115.693,153.053
0.613,28.781,4.404,4.404,-50.613,115.675,153.041
0.616,28.796,4.394,4.394,-50.599,115.669,153.041
0.619,28.827,4.412,4.412,-50.569,115.666,153.049
0.622,28.869,4.451,4.451,-50.530,115.658,153.059
0.625,28.916,4.499,4.499,-50.487,115.640,153.067
0.627,28.971,4.543,4.543,-50.447,115.602,153.067
0.630,29.042,4.578,4.578,-50.417,115.539,153.055
0.633,29.136,4.606,4.606,-50.398,115.450,153.030
0.636,29.251,4.629,4.629,-50.389,115.341,152.994
0.639,29.382,4.650,4.650,-50.387,115.218,152.951
0.641,29.524,4.668,4.668,-50.391,115.085,152.901
0.644,29.670,4.687,4.687,-50.400,114.949,152.848
0.647,29.815,4.707,4.707,-50.412,114.816,152.794
0.650,29.952,4.728,4.728,-50.424,114.690,152.741
0.653,30.075,4.747,4.747,-50.435,114.577,152.692
0.655,30.178,4.761,4.761,-50.444,114.484,152.650
0.658,30.254,4.766,4.766,-50.449,114.415,152.616
0.661,30.304,4.762,4.762,-50.449,114.372,152.590
0.664,30.334,4.755,4.755,-50.445,114.349,152.571
0.667,30.353,4.747,4.747,-50.438,114.341,152.556
0.669,30.370,4.743,4.743,-50.430,114.342,152.542
0.672,30.388,4.741,4.741,-50.421,114.347,152.526
0.675,30.411,4.742,4.742,-50.412,114.350,152.506
0.678,30.439,4.744,4.744,-50.405,114.346,152.479
0.681,30.480,4.747,4.747,-50.401,114.329,152.442
0.683,30.540,4.749,4.749,-50.400,114.293,152.393
0.686,30.627,4.752,4.752,-50.404,114.234,152.329
0.689,30.745,4.755,4.755,-50.413,114.148,152.249
0.692,30.888,4.760,4.760,-50.427,114.039,152.157
0.695,31.052,4.770,4.770,-50.444,113.913,152.054
0.697,31.231,4.790,4.790,-50.464,113.772,151.945
0.700,31.419,4.820,4.820,-50.486,113.623,151.834
0.703,31.610,4.860,4.860,-50.509,113.470,151.722
0.706,31.798,4.906,4.906,-50.532,113.317,151.614
0.709,31.978,4.957,4.957,-50.554,113.169,151.514
0.711,32.145,5.010,5.010,-50.574,113.031,151.423
0.714,32.291,5.059,5.059,-50.592,112.907,151.347
0.717,32.414,5.099,5.099,-50.607,112.802,151.286
0.720,32.515,5.128,5.128,-50.619,112.713,151.239
0.723,32.598,5.149,5.149,-50.628,112.639,151.202
0.725,32.667,5.167,5.167,-50.636,112.578,151.171
0.728,32.724,5.187,5.187,-50.643,112.529,151.144
0.731,32.774,5.211,5.211,-50.649,112.488,151.116
0.734,32.821,5.235,5.235,-50.656,112.454,151.084
0.737,32.870,5.254,5.254,-50.664,112.425,151.045
0.739,32.928,5.266,5.266,-50.673,112.399,150.994
0.742,32.998,5.270,5.270,-50.684,112.374,150.929
0.745,33.086,5.265,5.265,-50.698,112.348,150.847
0.748,33.189,5.252,5.252,-50.716,112.319,150.750
0.751,33.303,5.232,5.232,-50.737,112.288,150.642
0.754,33.424,5.211,5.211,-50.764,112.254,150.529
0.756,33.549,5.192,5.192,-50.796,112.215,150.414
0.759,33.675,5.181,5.181,-50.834,112.171,150.303
0.762,33.797,5.180,5.180,-50.879,112.121,150.201
0.765,33.916,5.189,5.189,-50.932,112.065,150.111
0.768,34.030,5.207,5.207,-50.993,112.001,150.039
0.770,34.142,5.233,5.233,-51.064,111.930,149.989
0.773,34.257,5.265,5.265,-51.143,111.849,149.965
0.776,34.382,5.299,5.299,-51.232,111.761,149.967
0.779,34.517,5.332,5.332,-51.327,111.668,149.990
0.782,34.661,5.362,5.362,-51.427,111.571,150.028
0.784,34.810,5.395,5.395,-51.529,111.473,150.075
0.787,34.960,5.433,5.433,-51.630,111.377,150.128
0.790,35.106,5.482,5.482,-51.730,111.284,150.181
0.793,35.244,5.533,5.533,-51.826,111.196,150.228
0.796,35.369,5.576,5.576,-51.914,111.117,150.264
0.798,35.477,5.598,5.598,-51.995,111.047,150.285
0.801,35.567,5.593,5.593,-52.064,110.990,150.284
0.804,35.643,5.571,5.571,-52.122,110.946,150.262
0.807,35.715,5.547,5.547,-52.169,110.913,150.220
0.810,35.787,5.533,5.533,-52.207,110.890,150.163
0.812,35.864,5.531,5.531,-52.237,110.875,150.094
0.815,35.945,5.538,5.538,-52.259,110.867,150.016
0.818,36.029,5.546,5.546,-52.276,110.863,149.934
0.821,36.114,5.550,5.550,-52.287,110.863,149.850
0.824,36.196,5.551,5.551,-52.295,110.865,149.768
0.826,36.272,5.548,5.548,-52.299,110.868,149.692
0.829,36.338,5.542,5.542,-52.302,110.868,149.626
0.832,36.393,5.534,5.534,-52.305,110.866,149.571
0.835,36.438,5.526,5.526,-52.308,110.862,149.526
0.838,36.474,5.521,5.521,-52.310,110.857,149.491
0.840,36.502,5.519,5.519,-52.314,110.849,149.464
0.843,36.525,5.521,5.521,-52.320,110.841,149.443
0.846,36.545,5.525,5.525,-52.327,110.831,149.427
0.849,36.563,5.529,5.529,-52.338,110.822,149.416
0.852,36.582,5.531,5.531,-52.351,110.812,149.406
0.854,36.603,5.533,5.533,-52.368,110.802,149.398
0.857,36.627,5.532,5.532,-52.389,110.794,149.390
0.860,36.656,5.530,5.530,-52.415,110.786,149.381
0.863,36.692,5.525,5.525,-52.448,110.778,149.369
0.866,36.736,5.518,5.518,-52.489,110.769,149.356
0.868,36.792,5.510,5.510,-52.541,110.757,149.340
0.871,36.861,5.500,5.500,-52.606,110.741,149.323
0.874,36.945,5.492,5.492,-52.685,110.720,149.302
0.877,37.047,5.487,5.487,-52.780,110.693,149.278
0.880,37.170,5.490,5.490,-52.894,110.658,149.252
0.882,37.314,5.499,5.499,-53.029,110.614,149.222
0.885,37.484,5.514,5.514,-53.186,110.560,149.188
0.888,37.679,5.528,5.528,-53.367,110.495,149.151
0.891,37.899,5.541,5.541,-53.568,110.419,149.109
0.894,38.136,5.552,5.552,-53.786,110.336,149.065
0.896,38.386,5.566,5.566,-54.015,110.247,149.016
0.899,38.644,5.588,5.588,-54.249,110.154,148.965
0.902,38.904,5.620,5.620,-54.486,110.059,148.910
0.905,39.162,5.661,5.661,-54.718,109.964,148.852
0.908,39.412,5.710,5.710,-54.942,109.872,148.791
0.910,39.649,5.764,5.764,-55.153,109.784,148.728
0.913,39.868,5.820,5.820,-55.346,109.703,148.662
0.916,40.065,5.874,5.874,-55.515,109.629,148.593
0.919,40.240,5.921,5.921,-55.661,109.565,148.523
0.922,40.394,5.958,5.958,-55.786,109.509,148.451
0.924,40.530,5.986,5.986,-55.891,109.461,148.379
0.927,40.650,6.006,6.006,-55.978,109.420,148.308
0.930,40.756,6.021,6.021,-56.050,109.385,148.237
0.933,40.851,6.033,6.033,-56.109,109.355,148.169
0.936,40.936,6.044,6.044,-56.157,109.331,148.103
0.938,41.012,6.055,6.055,-56.196,109.311,148.041
0.941,41.080,6.070,6.070,-56.228,109.295,147.984
0.944,41.140,6.087,6.087,-56.255,109.282,147.932
0.947,41.196,6.106,6.106,-56.280,109.270,147.883
0.950,41.249,6.124,6.124,-56.305,109.260,147.837
0.952,41.305,6.142,6.142,-56.331,109.248,147.789
0.955,41.367,6.160,6.160,-56.360,109.234,147.737
0.958,41.438,6.180,6.180,-56.396,109.216,147.678
0.961,41.523,6.204,6.204,-56.439,109.193,147.608
0.964,41.626,6.234,6.234,-56.492,109.162,147.526
0.966,41.750,6.270,6.270,-56.557,109.123,147.428
0.969,41.899,6.316,6.316,-56.636,109.074,147.311
0.972,42.078,6.371,6.371,-56.731,109.014,147.172
0.975,42.288,6.439,6.439,-56.844,108.941,147.010
0.978,42.527,6.521,6.521,-56.972,108.856,146.827
0.980,42.792,6.620,6.620,-57.114,108.762,146.625
0.983,43.078,6.736,6.736,-57.268,108.659,146.406
0.986,43.384,6.870,6.870,-57.432,108.549,146.173
0.989,43.706,7.022,7.022,-57.606,108.432,145.929
0.992,44.040,7.192,7.192,-57.786,108.310,145.675
0.994,44.384,7.378,7.378,-57.972,108.184,145.414
0.997,44.734,7.574,7.574,-58.161,108.056,145.148
1.000,45.088,7.775,7.775,-58.351,107.927,144.880
