"T","Distance","Radius","FreeRadius","X","Y","Z"
0.000,0.000,1.260,1.260,114.043,79.671,109.957
0.001,0.184,1.373,1.373,113.988,79.537,110.069
0.002,0.364,1.485,1.485,113.934,79.405,110.180
0.003,0.540,1.593,1.593,113.880,79.278,110.288
0.004,0.707,1.698,1.698,113.826,79.157,110.390
0.005,0.864,1.797,1.796,113.772,79.045,110.486
0.006,1.007,1.888,1.888,113.719,78.945,110.573
0.007,1.134,1.971,1.970,113.666,78.858,110.651
0.008,1.244,2.043,2.043,113.614,78.787,110.716
0.009,1.334,2.104,2.104,113.563,78.735,110.769
0.010,1.405,2.152,2.152,113.513,78.702,110.806
0.011,1.459,2.186,2.186,113.465,78.688,110.829
0.012,1.503,2.207,2.207,113.424,78.689,110.840
0.013,1.537,2.218,2.218,113.391,78.699,110.842
0.014,1.563,2.220,2.220,113.370,78.713,110.837
0.015,1.582,2.214,2.215,113.364,78.728,110.828
0.016,1.601,2.203,2.204,113.377,78.738,110.817
0.017,1.637,2.189,2.189,113.410,78.740,110.807
0.018,1.697,2.172,2.172,113.469,78.727,110.800
0.019,1.788,2.156,2.156,113.555,78.695,110.799
0.020,1.915,2.140,2.140,113.670,78.643,110.805
0.021,2.070,2.128,2.128,113.807,78.572,110.818
0.022,2.245,2.119,2.118,113.960,78.488,110.836
0.023,2.433,2.112,2.111,114.121,78.394,110.856
0.024,2.624,2.107,2.107,114.284,78.296,110.878
0.025,2.811,2.104,2.104,114.441,78.197,110.899
0.026,2.985,2.104,2.103,114.586,78.102,110.917
0.027,3.138,2.104,2.104,114.710,78.015,110.932
0.028,3.260,2.106,2.106,114.808,77.941,110.941
0.030,3.346,2.109,2.109,114.872,77.884,110.943
0.031,3.397,2.112,2.112,114.904,77.845,110.940
0.032,3.421,2.116,2.117,114.909,77.822,110.934
0.033,3.437,2.119,2.120,114.896,77.814,110.931
0.034,3.465,2.119,2.121,114.869,77.820,110.935
0.035,3.505,2.116,2.119,114.835,77.838,110.948
0.036,3.557,2.109,2.111,114.802,77.867,110.976
0.037,3.623,2.095,2.098,114.774,77.905,111.021
0.038,3.706,2.075,2.078,114.760,77.952,111.088
0.039,3.814,2.046,2.048,114.764,78.005,111.181
0.040,3.951,2.008,2.009,114.791,78.065,111.302
0.041,4.115,1.960,1.959,114.836,78.130,111.446
0.042,4.304,1.901,1.898,114.894,78.200,111.611
0.043,4.510,1.834,1.830,114.959,78.276,111.792
0.044,4.731,1.764,1.757,115.025,78.357,111.986
0.045,4.959,1.692,1.684,115.089,78.443,112.188
0.046,5.191,1.624,1.614,115.143,78.534,112.394
0.047,5.423,1.561,1.551,115.183,78.629,112.601
0.048,5.651,1.507,1.498,115.204,78.730,112.805
0.049,5.874,1.465,1.458,115.200,78.835,113.002
0.050,6.093,1.439,1.435,115.173,78.945,113.189
0.051,6.310,1.432,1.434,115.127,79.061,113.367
0.052,6.527,1.444,1.453,115.067,79.184,113.535
0.053,6.742,1.473,1.491,114.996,79.315,113.691
0.054,6.957,1.516,1.544,114.920,79.455,113.834
0.055,7.170,1.570,1.608,114.842,79.605,113.965
0.056,7.383,1.632,1.679,114.766,79.765,114.082
0.057,7.594,1.699,1.755,114.698,79.937,114.184
0.058,7.806,1.767,1.831,114.641,80.121,114.271
0.059,8.018,1.835,1.904,114.598,80.316,114.344
0.060,8.231,1.898,1.971,114.571,80.517,114.408
0.061,8.441,1.955,2.027,114.558,80.718,114.469
0.062,8.646,2.003,2.073,114.562,80.914,114.531
0.063,8.844,2.045,2.109,114.581,81.098,114.601
0.064,9.034,2.082,2.139,114.617,81.264,114.684
0.065,9.217,2.115,2.163,114.670,81.408,114.785
0.066,9.401,2.146,2.185,114.741,81.524,114.910
0.067,9.597,2.176,2.206,114.829,81.605,115.064
0.068,9.817,2.208,2.228,114.935,81.648,115.251
0.069,10.066,2.242,2.253,115.058,81.655,115.469
0.070,10.342,2.281,2.284,115.195,81.635,115.708
0.071,10.640,2.325,2.322,115.345,81.594,115.961
0.072,10.951,2.375,2.368,115.505,81.538,116.222
0.073,11.267,2.429,2.420,115.674,81.476,116.482
0.074,11.581,2.488,2.478,115.850,81.413,116.734
0.075,11.884,2.549,2.539,116.030,81.358,116.971
0.076,12.169,2.611,2.602,116.213,81.316,117.186
0.077,12.429,2.674,2.667,116.396,81.296,117.370
0.078,12.666,2.736,2.731,116.578,81.299,117.521
0.079,12.882,2.796,2.793,116.756,81.322,117.642
0.080,13.083,2.853,2.853,116.928,81.364,117.736
0.081,13.269,2.907,2.907,117.091,81.419,117.807
0.082,13.444,2.955,2.957,117.244,81.486,117.858
0.083,13.606,2.999,3.001,117.384,81.561,117.891
0.084,13.754,3.037,3.039,117.508,81.641,117.912
0.085,13.889,3.069,3.071,117.614,81.722,117.922
0.086,14.006,3.095,3.097,117.700,81.802,117.926
0.087,14.105,3.115,3.117,117.765,81.877,117.926
0.089,14.189,3.128,3.129,117.812,81.946,117.921
0.090,14.261,3.134,3.134,117.846,82.009,117.911
0.091,14.324,3.132,3.132,117.871,82.064,117.894
0.092,14.382,3.123,3.122,117.892,82.111,117.869
0.093,14.438,3.106,3.105,117.914,82.150,117.834
0.094,14.498,3.083,3.082,117.942,82.178,117.789
0.095,14.570,3.054,3.053,117.981,82.197,117.732
0.096,14.659,3.020,3.020,118.035,82.204,117.661
0.097,14.772,2.983,2.982,118.108,82.199,117.576
0.098,14.907,2.942,2.942,118.201,82.186,117.479
0.099,15.055,2.900,2.899,118.308,82.169,117.378
0.100,15.206,2.856,2.856,118.422,82.157,117.279
0.101,15.352,2.812,2.812,118.538,82.154,117.191
0.102,15.485,2.768,2.768,118.650,82.168,117.119
0.103,15.602,2.725,2.725,118.750,82.205,117.072
0.104,15.711,2.681,2.681,118.835,82.271,117.057
0.105,15.832,2.636,2.636,118.896,82.374,117.080
0.106,15.996,2.590,2.590,118.929,82.518,117.149
0.107,16.221,2.542,2.542,118.930,82.709,117.268
0.108,16.503,2.491,2.491,118.907,82.939,117.430
0.109,16.830,2.436,2.436,118.869,83.200,117.625
0.110,17.189,2.377,2.377,118.825,83.482,117.841
0.111,17.564,2.314,2.314,118.787,83.777,118.069
0.112,17.943,2.246,2.246,118.762,84.077,118.299
0.113,18.311,2.174,2.173,118.762,84.372,118.521
0.114,18.660,2.100,2.100,118.795,84.653,118.724
0.115,18.981,2.028,2.028,118.872,84.912,118.898
0.116,19.276,1.959,1.959,119.001,85.140,119.033
0.117,19.557,1.895,1.895,119.180,85.334,119.129
0.118,19.836,1.840,1.840,119.398,85.498,119.189
0.119,20.117,1.795,1.795,119.642,85.633,119.219
0.120,20.399,1.762,1.762,119.901,85.743,119.224
0.121,20.675,1.745,1.745,120.163,85.830,119.209
0.122,20.937,1.744,1.744,120.416,85.896,119.180
0.123,21.177,1.757,1.757,120.647,85.944,119.141
0.124,21.383,1.782,1.782,120.846,85.977,119.098
0.125,21.544,1.815,1.815,121.000,85.997,119.056
0.126,21.653,1.852,1.852,121.102,86.008,119.019
0.127,21.717,1.890,1.890,121.158,86.011,118.988
0.128,21.748,1.925,1.925,121.178,86.010,118.965
0.129,21.766,1.955,1.955,121.170,86.009,118.950
0.130,21.794,1.974,1.974,121.142,86.010,118.943
0.131,21.833,1.981,1.981,121.104,86.017,118.947
0.132,21.878,1.972,1.972,121.064,86.033,118.961
0.133,21.929,1.949,1.949,121.031,86.060,118.987
0.134,21.989,1.915,1.915,121.013,86.103,119.026
0.135,22.068,1.871,1.871,121.018,86.163,119.078
0.136,22.173,1.822,1.822,121.047,86.242,119.140
0.137,22.302,1.770,1.770,121.093,86.340,119.210
0.138,22.450,1.717,1.717,121.150,86.456,119.281
0.139,22.614,1.667,1.667,121.214,86.590,119.351
0.140,22.790,1.622,1.622,121.278,86.741,119.416
0.141,22.976,1.584,1.584,121.336,86.909,119.470
0.142,23.172,1.557,1.557,121.384,87.095,119.509
0.143,23.377,1.539,1.539,121.415,87.296,119.531
0.144,23.595,1.530,1.530,121.423,87.514,119.529
0.145,23.829,1.529,1.529,121.405,87.747,119.504
0.146,24.079,1.534,1.534,121.365,87.989,119.458
0.148,24.341,1.546,1.546,121.306,88.237,119.398
0.149,24.609,1.562,1.562,121.233,88.485,119.329
0.150,24.878,1.583,1.583,121.147,88.730,119.255
0.151,25.142,1.606,1.606,121.054,88.966,119.182
0.152,25.394,1.632,1.632,120.956,89.188,119.115
0.153,25.627,1.659,1.659,120.858,89.392,119.059
0.154,25.836,1.686,1.686,120.763,89.573,119.018
0.155,26.015,1.715,1.715,120.675,89.728,118.999
0.156,26.166,1.743,1.743,120.594,89.856,118.999
0.157,26.295,1.772,1.772,120.522,89.961,119.016
0.158,26.407,1.801,1.801,120.458,90.048,119.046
0.159,26.506,1.829,1.829,120.402,90.118,119.087
0.160,26.595,1.857,1.857,120.355,90.176,119.135
0.161,26.676,1.883,1.883,120.317,90.226,119.188
0.162,26.751,1.909,1.909,120.288,90.269,119.241
0.163,26.820,1.933,1.933,120.268,90.310,119.292
0.164,26.883,1.955,1.955,120.258,90.352,119.339
0.165,26.943,1.975,1.975,120.257,90.398,119.377
0.166,27.000,1.992,1.992,120.264,90.445,119.409
0.167,27.055,2.007,2.007,120.279,90.492,119.432
0.168,27.108,2.018,2.018,120.299,90.539,119.448
0.169,27.160,2.026,2.026,120.325,90.584,119.455
0.170,27.211,2.029,2.029,120.354,90.625,119.455
0.171,27.260,2.028,2.028,120.386,90.662,119.447
0.172,27.309,2.023,2.023,120.419,90.693,119.430
0.173,27.358,2.013,2.013,120.454,90.717,119.404
0.174,27.408,1.999,1.999,120.487,90.733,119.371
0.175,27.457,1.982,1.982,120.518,90.744,119.334
0.176,27.502,1.964,1.964,120.546,90.752,119.299
0.177,27.538,1.946,1.946,120.568,90.760,119.272
0.178,27.562,1.929,1.929,120.583,90.773,119.259
0.179,27.584,1.913,1.913,120.590,90.792,119.266
0.180,27.628,1.900,1.900,120.587,90.822,119.298
0.181,27.706,1.892,1.892,120.572,90.866,119.361
0.182,27.826,1.889,1.889,120.544,90.926,119.461
0.183,27.995,1.891,1.891,120.501,91.006,119.604
0.184,28.213,1.898,1.898,120.444,91.106,119.789
0.185,28.469,1.910,1.910,120.373,91.221,120.006
0.186,28.752,1.925,1.925,120.291,91.346,120.247
0.187,29.052,1.943,1.943,120.200,91.477,120.501
0.188,29.358,1.963,1.963,120.101,91.609,120.759
0.189,29.660,1.984,1.984,119.996,91.736,121.012
0.190,29.947,2.006,2.006,119.888,91.855,121.250
0.191,30.209,2.027,2.027,119.778,91.960,121.463
0.192,30.437,2.047,2.047,119.668,92.046,121.643
0.193,30.624,2.065,2.065,119.559,92.110,121.781
0.194,30.774,2.082,2.082,119.457,92.157,121.881
0.195,30.894,2.098,2.098,119.365,92.190,121.950
0.196,30.987,2.112,2.112,119.287,92.216,121.993
0.197,31.055,2.125,2.125,119.227,92.239,122.016
0.198,31.102,2.138,2.138,119.190,92.266,122.026
0.199,31.138,2.149,2.149,119.180,92.301,122.029
0.200,31.191,2.160,2.160,119.200,92.350,122.031
0.201,31.280,2.170,2.170,119.256,92.418,122.038
0.202,31.413,2.180,2.180,119.350,92.511,122.057
0.203,31.592,2.189,2.189,119.481,92.628,122.089
0.204,31.807,2.199,2.199,119.640,92.765,122.135
0.205,32.048,2.210,2.210,119.819,92.916,122.194
0.207,32.308,2.222,2.222,120.010,93.077,122.264
0.208,32.575,2.237,2.237,120.203,93.243,122.346
0.209,32.842,2.254,2.254,120.391,93.407,122.439
0.210,33.099,2.273,2.273,120.565,93.567,122.542
0.211,33.339,2.297,2.297,120.717,93.715,122.654
0.212,33.555,2.324,2.324,120.837,93.848,122.775
0.213,33.746,2.357,2.357,120.921,93.961,122.903
0.214,33.916,2.393,2.393,120.972,94.056,123.035
0.215,34.070,2.432,2.432,120.996,94.137,123.164
0.216,34.210,2.473,2.473,120.999,94.206,123.286
0.217,34.336,2.514,2.514,120.986,94.266,123.396
0.218,34.447,2.554,2.554,120.964,94.319,123.490
0.219,34.538,2.591,2.591,120.938,94.369,123.562
0.220,34.609,2.624,2.624,120.914,94.419,123.607
0.221,34.665,2.652,2.652,120.897,94.470,123.621
0.222,34.726,2.673,2.673,120.894,94.526,123.600
0.223,34.808,2.685,2.685,120.906,94.588,123.546
0.224,34.911,2.690,2.690,120.932,94.653,123.470
0.225,35.029,2.688,2.688,120.970,94.721,123.382
0.226,35.152,2.680,2.680,121.020,94.790,123.293
0.227,35.274,2.668,2.668,121.080,94.859,123.213
0.228,35.388,2.653,2.653,121.149,94.926,123.151
0.229,35.494,2.636,2.636,121.226,94.991,123.118
0.230,35.596,2.619,2.619,121.309,95.051,123.124
0.231,35.714,2.602,2.602,121.398,95.105,123.180
0.232,35.865,2.587,2.587,121.490,95.153,123.289
0.233,36.048,2.574,2.574,121.587,95.196,123.438
0.234,36.254,2.566,2.566,121.686,95.235,123.615
0.235,36.471,2.559,2.559,121.787,95.271,123.803
0.236,36.686,2.555,2.555,121.890,95.306,123.988
0.237,36.886,2.551,2.551,121.994,95.341,124.156
0.238,37.062,2.549,2.549,122.098,95.377,124.293
0.239,37.204,2.546,2.546,122.202,95.416,124.382
0.240,37.320,2.543,2.543,122.305,95.459,124.411
0.241,37.441,2.538,2.538,122.406,95.508,124.365
0.242,37.603,2.532,2.532,122.507,95.562,124.250
0.243,37.811,2.523,2.523,122.606,95.621,124.077
0.244,38.056,2.512,2.512,122.704,95.685,123.862
0.245,38.328,2.499,2.499,122.803,95.752,123.618
0.246,38.615,2.486,2.486,122.902,95.824,123.358
0.247,38.904,2.473,2.473,123.002,95.899,123.097
0.248,39.184,2.461,2.461,123.104,95.977,122.849
0.249,39.442,2.451,2.451,123.208,96.057,122.626
0.250,39.669,2.444,2.444,123.314,96.139,122.444
0.251,39.861,2.441,2.441,123.422,96.223,122.309
0.252,40.027,2.442,2.442,123.531,96.308,122.217
0.253,40.174,2.448,2.448,123.638,96.394,122.162
0.254,40.310,2.459,2.459,123.742,96.479,122.139
0.255,40.440,2.473,2.473,123.839,96.564,122.142
0.256,40.565,2.489,2.489,123.929,96.647,122.166
0.257,40.686,2.506,2.506,124.009,96.729,122.204
0.258,40.801,2.524,2.524,124.078,96.809,122.250
0.259,40.908,2.540,2.540,124.132,96.887,122.300
0.260,41.005,2.554,2.554,124.172,96.961,122.349
0.261,41.094,2.565,2.565,124.200,97.032,122.395
0.262,41.179,2.571,2.571,124.221,97.099,122.442
0.263,41.262,2.571,2.571,124.243,97.162,122.492
0.264,41.347,2.566,2.566,124.269,97.221,122.547
0.266,41.438,2.557,2.557,124.306,97.276,122.609
0.267,41.541,2.546,2.546,124.360,97.327,122.681
0.268,41.664,2.532,2.532,124.435,97.373,122.766
0.269,41.812,2.517,2.517,124.538,97.415,122.865
0.270,41.995,2.502,2.502,124.674,97.451,122.981
0.271,42.213,2.488,2.488,124.844,97.482,123.114
0.272,42.459,2.476,2.476,125.042,97.509,123.259
0.273,42.727,2.468,2.468,125.260,97.531,123.412
0.274,43.009,2.462,2.462,125.493,97.549,123.569
0.275,43.296,2.461,2.461,125.733,97.563,123.726
0.276,43.581,2.462,2.462,125.974,97.574,123.878
0.277,43.855,2.465,2.465,126.209,97.581,124.020
0.278,44.112,2.470,2.470,126.430,97.584,124.149
0.279,44.342,2.476,2.476,126.632,97.585,124.260
0.280,44.540,2.481,2.481,126.809,97.583,124.349
0.281,44.705,2.485,2.485,126.959,97.579,124.418
0.282,44.840,2.489,2.489,127.084,97.571,124.469
0.283,44.948,2.489,2.489,127.184,97.561,124.507
0.284,45.029,2.488,2.488,127.260,97.547,124.533
0.285,45.088,2.484,2.484,127.313,97.530,124.551
0.286,45.128,2.478,2.478,127.345,97.509,124.564
0.287,45.156,2.470,2.470,127.355,97.485,124.575
0.288,45.188,2.462,2.462,127.345,97.457,124.587
0.289,45.234,2.452,2.452,127.316,97.425,124.602
0.290,45.295,2.443,2.443,127.271,97.391,124.624
0.291,45.366,2.434,2.434,127.218,97.355,124.656
0.292,45.445,2.426,2.426,127.162,97.322,124.700
0.293,45.529,2.420,2.420,127.112,97.291,124.761
0.294,45.620,2.415,2.415,127.074,97.267,124.840
0.295,45.724,2.412,2.412,127.054,97.250,124.940
0.296,45.850,2.412,2.412,127.061,97.243,125.066
0.297,46.009,2.414,2.414,127.101,97.249,125.219
0.298,46.210,2.421,2.421,127.180,97.269,125.403
0.299,46.461,2.431,2.431,127.304,97.305,125.619
0.300,46.756,2.446,2.446,127.466,97.355,125.859
0.301,47.081,2.465,2.465,127.655,97.415,126.117
0.302,47.425,2.490,2.490,127.864,97.482,126.383
0.303,47.775,2.520,2.520,128.082,97.553,126.648
0.304,48.119,2.557,2.557,128.299,97.625,126.904
0.305,48.443,2.597,2.597,128.508,97.694,127.142
0.306,48.734,2.641,2.641,128.697,97.758,127.354
0.307,48.980,2.686,2.686,128.858,97.813,127.531
0.308,49.168,2.732,2.732,128.982,97.856,127.665
0.309,49.295,2.777,2.777,129.067,97.886,127.756
0.310,49.371,2.819,2.819,129.118,97.906,127.808
0.311,49.405,2.858,2.858,129.142,97.916,127.829
0.312,49.410,2.891,2.891,129.144,97.918,127.825
0.313,49.438,2.918,2.918,129.130,97.915,127.801
0.314,49.483,2.938,2.938,129.105,97.908,127.764
0.315,49.537,2.951,2.951,129.075,97.898,127.721
0.316,49.591,2.960,2.961,129.046,97.888,127.676
0.317,49.637,2.966,2.967,129.023,97.878,127.638
0.318,49.668,2.971,2.971,129.011,97.872,127.609
0.319,49.687,2.975,2.975,129.012,97.869,127.590
0.320,49.705,2.980,2.981,129.025,97.871,127.580
0.321,49.734,2.989,2.989,129.053,97.880,127.576
0.322,49.779,3.001,3.001,129.095,97.897,127.576
0.323,49.842,3.019,3.019,129.152,97.923,127.581
0.325,49.924,3.043,3.043,129.225,97.960,127.587
0.326,50.027,3.072,3.072,129.315,98.008,127.594
0.327,50.150,3.105,3.104,129.422,98.069,127.600
0.328,50.296,3.140,3.139,129.547,98.144,127.604
0.329,50.462,3.176,3.175,129.688,98.232,127.604
0.330,50.641,3.212,3.211,129.838,98.329,127.602
0.331,50.827,3.247,3.246,129.994,98.431,127.598
0.332,51.015,3.278,3.277,130.150,98.536,127.592
0.333,51.198,3.305,3.305,130.302,98.638,127.584
0.334,51.371,3.327,3.327,130.444,98.736,127.575
0.335,51.526,3.342,3.343,130.571,98.824,127.565
0.336,51.658,3.354,3.356,130.678,98.901,127.555
0.337,51.761,3.363,3.365,130.760,98.962,127.543
0.338,51.833,3.370,3.374,130.817,99.005,127.533
0.339,51.880,3.379,3.383,130.852,99.034,127.524
0.340,51.908,3.389,3.394,130.875,99.051,127.518
0.341,51.927,3.404,3.408,130.890,99.060,127.517
0.342,51.944,3.424,3.427,130.906,99.065,127.522
0.343,51.971,3.452,3.453,130.929,99.069,127.535
0.344,52.015,3.488,3.487,130.966,99.074,127.558
0.345,52.083,3.533,3.529,131.024,99.085,127.592
0.346,52.183,3.586,3.579,131.111,99.105,127.638
0.347,52.322,3.646,3.635,131.232,99.137,127.698
0.348,52.496,3.709,3.696,131.384,99.179,127.771
0.349,52.698,3.776,3.761,131.561,99.229,127.854
0.350,52.920,3.844,3.828,131.757,99.285,127.944
0.351,53.154,3.912,3.898,131.963,99.342,128.039
0.352,53.393,3.978,3.968,132.174,99.397,128.135
0.353,53.627,4.041,4.037,132.382,99.449,128.231
0.354,53.851,4.100,4.105,132.580,99.494,128.324
0.355,54.055,4.153,4.169,132.762,99.528,128.410
0.356,54.232,4.200,4.231,132.920,99.549,128.488
0.357,54.380,4.243,4.289,133.051,99.556,128.556
0.358,54.502,4.281,4.343,133.157,99.552,128.616
0.359,54.602,4.314,4.392,133.243,99.542,128.668
0.360,54.685,4.343,4.436,133.309,99.528,128.715
0.361,54.754,4.368,4.473,133.361,99.515,128.758
0.362,54.812,4.390,4.505,133.401,99.506,128.799
0.363,54.862,4.408,4.529,133.432,99.505,128.839
0.364,54.912,4.422,4.546,133.457,99.515,128.880
0.365,54.967,4.434,4.555,133.480,99.541,128.923
0.366,55.036,4.443,4.559,133.502,99.585,128.971
0.367,55.118,4.450,4.557,133.526,99.646,129.022
0.368,55.212,4.454,4.552,133.549,99.720,129.074
0.369,55.313,4.457,4.543,133.572,99.802,129.127
0.370,55.417,4.458,4.533,133.594,99.890,129.180
0.371,55.522,4.458,4.523,133.615,99.979,129.230
0.372,55.622,4.458,4.513,133.635,100.066,129.277
0.373,55.715,4.456,4.504,133.652,100.147,129.319
0.374,55.795,4.454,4.499,133.666,100.218,129.354
0.375,55.860,4.452,4.496,133.677,100.275,129.383
0.376,55.907,4.450,4.495,133.684,100.317,129.403
0.377,55.940,4.448,4.497,133.689,100.346,129.417
0.378,55.960,4.446,4.500,133.691,100.364,129.425
0.379,55.971,4.445,4.505,133.691,100.374,129.428
0.380,55.975,4.444,4.511,133.689,100.378,129.429
0.381,55.978,4.443,4.517,133.686,100.377,129.428
0.383,55.983,4.443,4.523,133.682,100.375,129.425
0.384,55.988,4.444,4.529,133.678,100.374,129.423
0.385,55.993,4.446,4.533,133.673,100.375,129.423
0.386,56.000,4.448,4.538,133.669,100.381,129.426
0.387,56.013,4.451,4.541,133.666,100.393,129.431
0.388,56.033,4.454,4.543,133.663,100.410,129.440
0.389,56.059,4.457,4.544,133.660,100.433,129.452
0.390,56.092,4.459,4.545,133.657,100.462,129.469
0.391,56.133,4.460,4.544,133.654,100.497,129.489
0.392,56.182,4.460,4.542,133.651,100.539,129.513
0.393,56.238,4.459,4.540,133.649,100.588,129.541
0.394,56.303,4.456,4.536,133.646,100.644,129.575
0.395,56.377,4.451,4.531,133.643,100.707,129.613
0.396,56.459,4.445,4.526,133.640,100.777,129.655
0.397,56.545,4.437,4.520,133.638,100.851,129.700
0.398,56.635,4.429,4.514,133.638,100.927,129.746
0.399,56.725,4.421,4.509,133.642,101.004,129.792
0.400,56.813,4.414,4.505,133.649,101.080,129.836
0.401,56.897,4.409,4.502,133.661,101.152,129.877
0.402,56.975,4.405,4.501,133.679,101.219,129.914
0.403,57.046,4.404,4.501,133.704,101.279,129.944
0.404,57.110,4.407,4.505,133.737,101.329,129.967
0.405,57.169,4.413,4.511,133.777,101.369,129.982
0.406,57.225,4.422,4.519,133.824,101.399,129.990
0.407,57.281,4.433,4.528,133.874,101.423,129.994
0.408,57.336,4.444,4.536,133.925,101.442,129.998
0.409,57.389,4.455,4.543,133.975,101.459,130.002
0.410,57.438,4.463,4.548,134.021,101.476,130.011
0.411,57.485,4.468,4.548,134.061,101.494,130.027
0.412,57.531,4.469,4.543,134.091,101.518,130.051
0.413,57.581,4.464,4.532,134.111,101.547,130.088
0.414,57.646,4.452,4.514,134.116,101.586,130.139
0.415,57.726,4.432,4.487,134.108,101.633,130.204
0.416,57.822,4.405,4.453,134.090,101.688,130.280
0.417,57.930,4.373,4.413,134.065,101.750,130.365
0.418,58.046,4.336,4.369,134.035,101.817,130.456
0.419,58.168,4.296,4.323,134.004,101.887,130.549
0.420,58.290,4.256,4.276,133.975,101.960,130.643
0.421,58.410,4.215,4.229,133.950,102.035,130.734
0.422,58.525,4.176,4.185,133.934,102.109,130.821
