"T","Distance","Radius","FreeRadius","X","Y","Z"
0.000,0.000,6.733,6.733,189.752,211.655,210.849
0.001,0.573,6.432,6.432,189.250,211.910,210.957
0.002,1.143,6.136,6.136,188.752,212.164,211.065
0.003,1.707,5.851,5.851,188.258,212.417,211.172
0.005,2.264,5.584,5.584,187.772,212.668,211.278
0.006,2.811,5.339,5.339,187.297,212.916,211.382
0.007,3.344,5.122,5.122,186.834,213.160,211.484
0.008,3.861,4.940,4.940,186.386,213.400,211.583
0.009,4.360,4.796,4.796,185.957,213.635,211.680
0.010,4.838,4.698,4.698,185.548,213.864,211.773
0.012,5.293,4.646,4.646,185.162,214.087,211.863
0.013,5.722,4.634,4.634,184.801,214.303,211.949
0.014,6.122,4.654,4.654,184.469,214.511,212.030
0.015,6.492,4.699,4.699,184.167,214.710,212.107
0.016,6.828,4.763,4.763,183.899,214.900,212.178
0.017,7.130,4.837,4.837,183.667,215.080,212.243
0.019,7.397,4.917,4.917,183.470,215.251,212.303
0.020,7.633,4.993,4.993,183.305,215.412,212.357
0.021,7.843,5.059,5.059,183.170,215.564,212.407
0.022,8.030,5.115,5.115,183.062,215.710,212.452
0.023,8.198,5.161,5.161,182.976,215.848,212.492
0.024,8.350,5.199,5.199,182.911,215.981,212.529
0.026,8.491,5.232,5.232,182.862,216.109,212.563
0.027,8.623,5.260,5.260,182.826,216.232,212.593
0.028,8.749,5.285,5.285,182.802,216.352,212.621
0.029,8.870,5.309,5.309,182.784,216.470,212.647
0.030,8.990,5.334,5.334,182.771,216.586,212.671
0.031,9.107,5.361,5.361,182.758,216.701,212.693
0.033,9.225,5.390,5.390,182.743,216.816,212.714
0.034,9.345,5.422,5.422,182.723,216.932,212.735
0.035,9.467,5.457,5.457,182.694,217.049,212.755
0.036,9.592,5.494,5.494,182.658,217.168,212.775
0.037,9.721,5.535,5.535,182.614,217.287,212.793
0.038,9.852,5.578,5.578,182.565,217.407,212.811
0.040,9.986,5.624,5.624,182.509,217.528,212.827
0.041,10.121,5.673,5.673,182.450,217.648,212.842
0.042,10.257,5.724,5.724,182.386,217.768,212.854
0.043,10.393,5.777,5.777,182.321,217.886,212.865
0.044,10.529,5.830,5.830,182.253,218.004,212.872
0.045,10.664,5.881,5.881,182.184,218.120,212.877
0.047,10.797,5.931,5.931,182.116,218.234,212.878
0.048,10.927,5.976,5.976,182.048,218.346,212.876
0.049,11.055,6.016,6.016,181.982,218.455,212.870
0.050,11.178,6.049,6.049,181.919,218.561,212.860
0.051,11.298,6.075,6.075,181.860,218.663,212.845
0.052,11.413,6.094,6.094,181.804,218.762,212.826
0.054,11.524,6.107,6.107,181.753,218.857,212.804
0.055,11.631,6.116,6.116,181.705,218.950,212.778
0.056,11.734,6.122,6.122,181.661,219.039,212.749
0.057,11.835,6.126,6.126,181.620,219.125,212.718
0.058,11.932,6.131,6.131,181.583,219.209,212.686
0.059,12.026,6.137,6.137,181.549,219.291,212.652
0.061,12.118,6.146,6.146,181.518,219.370,212.618
0.062,12.207,6.159,6.159,181.490,219.448,212.585
0.063,12.293,6.177,6.177,181.465,219.523,212.552
0.064,12.377,6.197,6.197,181.442,219.597,212.520
0.065,12.458,6.220,6.220,181.422,219.670,212.491
0.066,12.537,6.245,6.245,181.404,219.741,212.464
0.068,12.613,6.272,6.272,181.388,219.812,212.439
0.069,12.687,6.300,6.300,181.374,219.882,212.419
0.070,12.759,6.328,6.328,181.361,219.951,212.401
0.071,12.829,6.356,6.356,181.349,220.018,212.386
0.072,12.898,6.383,6.383,181.338,220.084,212.372
0.073,12.964,6.408,6.408,181.326,220.148,212.359
0.075,13.028,6.432,6.432,181.313,220.210,212.346
0.076,13.090,6.454,6.454,181.299,220.269,212.332
0.077,13.151,6.473,6.473,181.283,220.325,212.317
0.078,13.210,6.488,6.488,181.264,220.377,212.300
0.079,13.267,6.500,6.500,181.241,220.427,212.279
0.080,13.325,6.508,6.508,181.215,220.472,212.255
0.082,13.384,6.510,6.510,181.184,220.513,212.227
0.083,13.446,6.509,6.509,181.148,220.550,212.193
0.084,13.511,6.504,6.504,181.106,220.582,212.153
0.085,13.583,6.496,6.496,181.058,220.608,212.107
0.086,13.662,6.487,6.487,181.004,220.630,212.054
0.087,13.748,6.477,6.477,180.945,220.651,211.994
0.089,13.840,6.467,6.467,180.884,220.674,211.930
0.090,13.936,6.459,6.459,180.822,220.702,211.862
0.091,14.037,6.452,6.452,180.762,220.738,211.790
0.092,14.141,6.448,6.448,180.704,220.785,211.717
0.093,14.251,6.450,6.450,180.651,220.847,211.643
0.094,14.370,6.460,6.460,180.604,220.927,211.569
0.096,14.499,6.483,6.483,180.566,221.027,211.496
0.097,14.645,6.520,6.520,180.538,221.152,211.425
0.098,14.812,6.575,6.575,180.522,221.304,211.358
0.099,15.005,6.652,6.652,180.520,221.486,211.294
0.100,15.229,6.752,6.752,180.534,221.702,211.235
0.101,15.489,6.879,6.879,180.565,221.954,211.183
0.103,15.789,7.033,7.033,180.615,222.246,211.138
0.104,16.126,7.209,7.209,180.684,222.574,211.099
0.105,16.495,7.405,7.405,180.767,222.932,211.065
0.106,16.889,7.614,7.614,180.864,223.313,211.036
0.107,17.303,7.832,7.832,180.970,223.712,211.010
0.108,17.730,8.055,8.055,181.084,224.123,210.987
0.110,18.163,8.279,8.279,181.203,224.539,210.964
0.111,18.596,8.498,8.498,181.325,224.953,210.941
0.112,19.022,8.708,8.708,181.446,225.361,210.918
0.113,19.434,8.907,8.907,181.565,225.755,210.892
0.114,19.827,9.093,9.093,181.678,226.130,210.862
0.115,20.193,9.265,9.265,181.784,226.479,210.828
0.117,20.526,9.420,9.420,181.879,226.796,210.789
0.118,20.821,9.557,9.557,181.961,227.075,210.743
0.119,21.071,9.674,9.674,182.027,227.309,210.689
0.120,21.274,9.771,9.771,182.076,227.497,210.627
0.121,21.437,9.844,9.844,182.110,227.640,210.557
0.122,21.566,9.895,9.895,182.129,227.744,210.481
0.124,21.672,9.924,9.924,182.134,227.812,210.400
0.125,21.766,9.936,9.936,182.128,227.849,210.315
0.126,21.856,9.935,9.935,182.112,227.859,210.227
0.127,21.950,9.923,9.923,182.087,227.848,210.137
0.128,22.052,9.906,9.906,182.054,227.818,210.045
0.129,22.160,9.885,9.885,182.015,227.774,209.954
0.131,22.273,9.865,9.865,181.972,227.721,209.865
0.132,22.388,9.850,9.850,181.926,227.663,209.777
0.133,22.501,9.841,9.841,181.877,227.604,209.693
0.134,22.610,9.838,9.838,181.828,227.548,209.613
0.135,22.710,9.840,9.840,181.781,227.501,209.539
0.136,22.799,9.846,9.846,181.735,227.465,209.471
0.138,22.877,9.856,9.856,181.692,227.442,209.410
0.139,22.946,9.868,9.868,181.652,227.432,209.355
0.140,23.009,9.882,9.882,181.614,227.432,209.305
0.141,23.067,9.898,9.898,181.578,227.443,209.260
0.142,23.124,9.914,9.914,181.544,227.462,209.219
0.143,23.180,9.929,9.929,181.512,227.489,209.182
0.145,23.238,9.943,9.943,181.481,227.524,209.148
0.146,23.297,9.956,9.956,181.451,227.565,209.117
0.147,23.359,9.965,9.965,181.422,227.610,209.087
0.148,23.423,9.971,9.971,181.394,227.660,209.059
0.149,23.488,9.973,9.973,181.366,227.713,209.032
0.150,23.556,9.969,9.969,181.338,227.767,209.005
0.152,23.624,9.960,9.960,181.310,227.823,208.977
0.153,23.692,9.944,9.944,181.282,227.879,208.948
0.154,23.761,9.923,9.923,181.254,227.934,208.918
0.155,23.830,9.898,9.898,181.225,227.988,208.887
0.156,23.897,9.871,9.871,181.197,228.040,208.855
0.157,23.962,9.843,9.843,181.169,228.089,208.822
0.159,24.026,9.816,9.816,181.142,228.134,208.788
0.160,24.086,9.790,9.790,181.115,228.176,208.753
0.161,24.143,9.769,9.769,181.090,228.213,208.718
0.162,24.196,9.752,9.752,181.067,228.246,208.682
0.163,24.246,9.741,9.741,181.045,228.272,208.647
0.164,24.291,9.735,9.735,181.025,228.293,208.611
0.166,24.333,9.733,9.733,181.008,228.307,208.576
0.167,24.372,9.734,9.734,180.994,228.313,208.541
0.168,24.408,9.737,9.737,180.982,228.311,208.506
0.169,24.445,9.743,9.743,180.974,228.300,208.472
0.170,24.483,9.749,9.749,180.969,228.281,208.439
0.171,24.526,9.756,9.756,180.968,228.253,208.406
0.172,24.574,9.761,9.761,180.969,228.218,208.373
0.174,24.627,9.765,9.765,180.972,228.178,208.339
0.175,24.684,9.767,9.767,180.976,228.135,208.302
0.176,24.743,9.765,9.765,180.982,228.091,208.263
0.177,24.805,9.759,9.759,180.987,228.046,208.220
0.178,24.869,9.747,9.747,180.992,228.004,208.173
0.179,24.934,9.729,9.729,180.995,227.965,208.120
0.181,25.002,9.703,9.703,180.997,227.932,208.061
0.182,25.073,9.670,9.670,180.996,227.906,207.995
0.183,25.149,9.627,9.627,180.992,227.889,207.921
0.184,25.232,9.577,9.577,180.984,227.883,207.839
0.185,25.325,9.521,9.521,180.972,227.889,207.747
0.186,25.430,9.460,9.460,180.955,227.910,207.645
0.188,25.551,9.397,9.397,180.932,227.945,207.532
0.189,25.686,9.334,9.334,180.905,227.995,207.410
0.190,25.832,9.271,9.271,180.873,228.056,207.280
0.191,25.990,9.210,9.210,180.838,228.128,207.145
0.192,26.154,9.154,9.154,180.800,228.207,207.005
0.193,26.325,9.103,9.103,180.761,228.293,206.864
0.195,26.498,9.057,9.057,180.720,228.383,206.721
0.196,26.671,9.015,9.015,180.679,228.475,206.580
0.197,26.842,8.977,8.977,180.638,228.567,206.443
0.198,27.008,8.943,8.943,180.599,228.658,206.309
0.199,27.166,8.913,8.913,180.562,228.746,206.183
0.200,27.314,8.886,8.886,180.527,228.827,206.064
0.202,27.449,8.861,8.861,180.495,228.902,205.956
0.203,27.569,8.839,8.839,180.468,228.967,205.859
0.204,27.671,8.819,8.819,180.446,229.021,205.776
0.205,27.754,8.801,8.801,180.429,229.064,205.707
0.206,27.821,8.786,8.786,180.416,229.096,205.650
0.207,27.873,8.772,8.772,180.408,229.119,205.604
0.209,27.913,8.761,8.761,180.402,229.135,205.568
0.210,27.942,8.751,8.751,180.400,229.145,205.540
0.211,27.964,8.744,8.744,180.400,229.150,205.519
0.212,27.979,8.738,8.738,180.402,229.151,205.504
0.213,27.990,8.733,8.733,180.405,229.151,205.493
0.214,27.999,8.730,8.730,180.408,229.149,205.485
0.216,28.007,8.728,8.728,180.412,229.149,205.479
0.217,28.014,8.725,8.725,180.416,229.150,205.473
0.218,28.022,8.721,8.721,180.418,229.154,205.466
0.219,28.035,8.716,8.716,180.419,229.163,205.456
0.220,28.055,8.708,8.708,180.417,229.178,205.443
0.221,28.084,8.697,8.697,180.414,229.200,205.425
0.223,28.120,8.683,8.683,180.408,229.228,205.403
0.224,28.163,8.665,8.665,180.400,229.261,205.377
0.225,28.209,8.645,8.645,180.392,229.297,205.349
0.226,28.258,8.623,8.623,180.383,229.336,205.321
0.227,28.308,8.601,8.601,180.374,229.375,205.291
0.228,28.356,8.579,8.579,180.366,229.414,205.263
0.230,28.402,8.559,8.559,180.359,229.451,205.237
0.231,28.444,8.542,8.542,180.354,229.485,205.214
0.232,28.479,8.529,8.529,180.352,229.514,205.194
0.233,28.506,8.522,8.522,180.352,229.537,205.179
0.234,28.525,8.519,8.519,180.356,229.553,205.171
0.235,28.536,8.521,8.521,180.364,229.561,205.169
0.237,28.551,8.528,8.528,180.377,229.558,205.175
0.238,28.578,8.540,8.540,180.395,229.545,205.190
0.239,28.619,8.556,8.556,180.418,229.521,205.214
0.240,28.669,8.575,8.575,180.444,229.489,205.243
0.241,28.726,8.599,8.599,180.471,229.452,205.276
0.242,28.784,8.626,8.626,180.499,229.414,205.310
0.244,28.839,8.655,8.655,180.524,229.377,205.343
0.245,28.888,8.684,8.684,180.546,229.344,205.371
0.246,28.925,8.710,8.710,180.562,229.318,205.393
0.247,28.947,8.728,8.728,180.572,229.303,205.405
0.248,28.949,8.735,8.735,180.572,229.302,205.406
0.249,28.971,8.728,8.728,180.562,229.316,205.393
0.251,29.021,8.703,8.703,180.540,229.350,205.363
0.252,29.104,8.656,8.656,180.504,229.407,205.314
0.253,29.224,8.585,8.585,180.453,229.489,205.243
0.254,29.385,8.488,8.488,180.384,229.599,205.148
0.255,29.591,8.371,8.371,180.296,229.740,205.027
0.256,29.838,8.236,8.236,180.192,229.909,204.881
0.258,30.120,8.090,8.090,180.074,230.103,204.714
0.259,30.432,7.937,7.937,179.945,230.318,204.528
0.260,30.768,7.781,7.781,179.808,230.549,204.326
0.261,31.122,7.626,7.626,179.665,230.793,204.112
0.262,31.489,7.479,7.479,179.521,231.046,203.888
0.263,31.863,7.342,7.342,179.377,231.303,203.658
0.265,32.239,7.217,7.217,179.237,231.561,203.424
0.266,32.610,7.105,7.105,179.103,231.816,203.190
0.267,32.972,7.004,7.005,178.978,232.065,202.957
0.268,33.319,6.915,6.915,178.866,232.302,202.730
0.269,33.646,6.837,6.837,178.768,232.524,202.512
0.270,33.947,6.770,6.770,178.689,232.727,202.305
0.272,34.218,6.713,6.713,178.631,232.908,202.112
0.273,34.456,6.666,6.666,178.594,233.064,201.935
0.274,34.667,6.628,6.628,178.577,233.197,201.773
0.275,34.852,6.599,6.599,178.577,233.309,201.626
0.276,35.015,6.578,6.577,178.592,233.402,201.491
0.277,35.161,6.563,6.563,178.620,233.476,201.370
0.279,35.291,6.554,6.553,178.657,233.535,201.259
0.280,35.409,6.549,6.548,178.701,233.580,201.160
0.281,35.517,6.548,6.547,178.750,233.613,201.070
0.282,35.615,6.548,6.548,178.802,233.636,200.989
0.283,35.706,6.550,6.550,178.854,233.650,200.916
0.284,35.788,6.553,6.554,178.903,233.657,200.851
0.286,35.863,6.555,6.557,178.947,233.659,200.791
0.287,35.929,6.558,6.560,178.985,233.659,200.736
0.288,35.986,6.560,6.563,179.012,233.657,200.686
0.289,36.035,6.562,6.565,179.027,233.655,200.640
0.290,36.079,6.563,6.565,179.030,233.655,200.596
0.291,36.121,6.562,6.564,179.022,233.658,200.554
0.293,36.166,6.561,6.561,179.004,233.663,200.514
0.294,36.215,6.557,6.556,178.977,233.672,200.474
0.295,36.269,6.552,6.548,178.942,233.686,200.435
0.296,36.330,6.544,6.537,178.899,233.705,200.395
0.297,36.399,6.533,6.524,178.850,233.729,200.354
0.298,36.474,6.519,6.508,178.796,233.761,200.312
0.300,36.558,6.500,6.489,178.738,233.800,200.266
0.301,36.649,6.477,6.468,178.677,233.847,200.218
0.302,36.748,6.449,6.443,178.613,233.904,200.166
0.303,36.857,6.416,6.416,178.548,233.969,200.110
0.304,36.974,6.377,6.386,178.483,234.046,200.049
0.305,37.102,6.333,6.353,178.418,234.133,199.982
0.307,37.240,6.285,6.318,178.355,234.232,199.910
0.308,37.387,6.236,6.281,178.293,234.341,199.832
0.309,37.542,6.185,6.243,178.233,234.457,199.750
0.310,37.702,6.135,6.205,178.175,234.580,199.665
0.311,37.867,6.087,6.165,178.119,234.708,199.577
0.312,38.034,6.041,6.126,178.065,234.838,199.487
0.314,38.203,6.000,6.087,178.013,234.971,199.396
0.315,38.370,5.963,6.049,177.964,235.103,199.306
0.316,38.535,5.930,6.013,177.918,235.233,199.216
0.317,38.695,5.901,5.978,177.875,235.360,199.128
0.318,38.850,5.874,5.945,177.834,235.481,199.042
0.319,38.996,5.850,5.915,177.797,235.596,198.960
0.321,39.132,5.827,5.888,177.762,235.702,198.882
0.322,39.257,5.804,5.865,177.732,235.799,198.808
0.323,39.369,5.782,5.847,177.705,235.883,198.741
0.324,39.468,5.759,5.833,177.681,235.957,198.679
0.325,39.556,5.735,5.824,177.660,236.020,198.621
0.326,39.635,5.711,5.822,177.643,236.074,198.566
0.328,39.706,5.686,5.826,177.627,236.120,198.514
0.329,39.773,5.661,5.837,177.614,236.160,198.462
0.330,39.836,5.636,5.856,177.602,236.194,198.411
0.331,39.897,5.612,5.883,177.592,236.224,198.358
0.332,39.959,5.588,5.919,177.583,236.251,198.303
0.333,40.022,5.565,5.965,177.575,236.277,198.245
0.334,40.090,5.542,6.020,177.567,236.301,198.183
0.336,40.162,5.520,6.081,177.560,236.326,198.116
0.337,40.241,5.499,6.144,177.552,236.353,198.042
0.338,40.329,5.479,6.206,177.543,236.383,197.960
0.339,40.425,5.460,6.261,177.534,236.417,197.870
0.340,40.532,5.440,6.306,177.524,236.455,197.771
0.341,40.648,5.422,6.337,177.512,236.499,197.664
0.343,40.771,5.403,6.350,177.500,236.545,197.551
0.344,40.900,5.385,6.340,177.488,236.595,197.433
0.345,41.033,5.368,6.307,177.475,236.647,197.311
0.346,41.168,5.350,6.255,177.462,236.700,197.188
0.347,41.304,5.334,6.187,177.449,236.754,197.063
0.348,41.439,5.317,6.108,177.436,236.809,196.940
0.350,41.572,5.302,6.022,177.423,236.863,196.819
0.351,41.701,5.288,5.934,177.411,236.915,196.702
0.352,41.824,5.275,5.846,177.400,236.965,196.590
0.353,41.940,5.263,5.763,177.390,237.013,196.485
0.354,42.047,5.252,5.690,177.381,237.058,196.388
0.355,42.144,5.242,5.627,177.374,237.098,196.301
0.357,42.228,5.234,5.573,177.367,237.133,196.225
0.358,42.300,5.228,5.528,177.363,237.164,196.159
0.359,42.361,5.223,5.491,177.360,237.190,196.105
0.360,42.411,5.220,5.460,177.358,237.212,196.060
0.361,42.452,5.218,5.435,177.358,237.231,196.023
0.362,42.484,5.218,5.415,177.359,237.246,195.995
0.364,42.508,5.219,5.399,177.360,237.258,195.975
0.365,42.525,5.223,5.387,177.363,237.267,195.961
0.366,42.536,5.227,5.377,177.366,237.274,195.952
0.367,42.543,5.232,5.370,177.370,237.279,195.949
0.368,42.549,5.238,5.365,177.375,237.283,195.950
0.369,42.557,5.244,5.363,177.380,237.286,195.955
0.371,42.566,5.249,5.362,177.385,237.287,195.963
0.372,42.577,5.254,5.362,177.390,237.288,195.973
0.373,42.590,5.257,5.363,177.396,237.290,195.984
0.374,42.603,5.259,5.366,177.401,237.291,195.995
0.375,42.615,5.258,5.368,177.406,237.294,196.006
0.376,42.625,5.256,5.370,177.409,237.299,196.015
0.378,42.635,5.250,5.371,177.410,237.306,196.021
0.379,42.646,5.242,5.370,177.408,237.317,196.023
0.380,42.662,5.231,5.366,177.403,237.332,196.019
0.381,42.687,5.216,5.359,177.393,237.352,196.009
0.382,42.721,5.198,5.347,177.379,237.378,195.991
0.383,42.768,5.176,5.331,177.359,237.410,195.963
0.385,42.829,5.150,5.309,177.333,237.450,195.926
0.386,42.905,5.120,5.282,177.300,237.498,195.877
0.387,42.998,5.088,5.252,177.259,237.555,195.816
0.388,43.110,5.055,5.221,177.210,237.622,195.741
0.389,43.242,5.022,5.190,177.151,237.699,195.651
0.390,43.396,4.990,5.161,177.084,237.788,195.545
0.392,43.571,4.961,5.136,177.007,237.888,195.423
0.393,43.765,4.935,5.116,176.922,237.997,195.288
0.394,43.974,4.915,5.103,176.832,238.116,195.141
0.395,44.195,4.899,5.099,176.737,238.242,194.986
0.396,44.426,4.889,5.101,176.640,238.375,194.823
0.397,44.665,4.883,5.107,176.543,238.513,194.656
0.399,44.907,4.880,5.114,176.446,238.655,194.485
0.400,45.150,4.878,5.121,176.351,238.801,194.315
0.401,45.393,4.877,5.124,176.261,238.949,194.146
0.402,45.631,4.876,5.121,176.176,239.098,193.980
0.403,45.862,4.874,5.111,176.099,239.247,193.821
0.404,46.084,4.869,5.090,176.031,239.394,193.670
0.406,46.294,4.861,5.058,175.974,239.540,193.528
0.407,46.491,4.850,5.017,175.929,239.681,193.400
0.408,46.673,4.838,4.971,175.898,239.818,193.285
0.409,46.841,4.823,4.923,175.879,239.951,193.183
0.410,46.997,4.807,4.875,175.873,240.079,193.093
0.411,47.144,4.791,4.829,175.876,240.202,193.014
0.413,47.282,4.774,4.790,175.889,240.321,192.944
0.414,47.414,4.757,4.759,175.909,240.435,192.882
0.415,47.540,4.740,4.740,175.936,240.545,192.826
0.416,47.661,4.724,4.731,175.969,240.650,192.775
0.417,47.778,4.709,4.732,176.005,240.751,192.728
0.418,47.892,4.695,4.740,176.044,240.848,192.684
0.420,48.001,4.682,4.752,176.085,240.939,192.640
0.421,48.107,4.670,4.768,176.125,241.027,192.596
0.422,48.210,4.660,4.784,176.165,241.110,192.551
0.423,48.310,4.652,4.798,176.202,241.189,192.502
0.424,48.407,4.646,4.809,176.236,241.263,192.449
0.425,48.503,4.641,4.816,176.266,241.334,192.392
0.427,48.597,4.639,4.817,176.291,241.400,192.330
0.428,48.689,4.638,4.815,176.313,241.463,192.266
0.429,48.781,4.638,4.812,176.331,241.523,192.199
0.430,48.870,4.640,4.807,176.346,241.580,192.131
0.431,48.958,4.642,4.802,176.358,241.634,192.063
0.432,49.044,4.645,4.799,176.367,241.686,191.996
0.434,49.127,4.648,4.798,176.374,241.736,191.930
0.435,49.207,4.651,4.800,176.378,241.784,191.866
0.436,49.284,4.654,4.807,176.380,241.831,191.805
0.437,49.357,4.657,4.817,176.381,241.877,191.749
0.438,49.425,4.660,4.828,176.379,241.923,191.697
0.439,49.489,4.662,4.841,176.377,241.968,191.652
0.441,49.549,4.664,4.853,176.373,242.013,191.613
0.442,49.604,4.665,4.864,176.368,242.058,191.581
0.443,49.656,4.665,4.873,176.362,242.103,191.557
0.444,49.705,4.665,4.879,176.356,242.149,191.539
0.445,49.753,4.664,4.881,176.349,242.194,191.527
0.446,49.799,4.662,4.878,176.342,242.240,191.521
0.448,49.845,4.660,4.872,176.335,242.285,191.519
0.449,49.891,4.656,4.863,176.327,242.330,191.522
0.450,49.937,4.651,4.852,176.320,242.375,191.528
0.451,49.983,4.645,4.840,176.313,242.419,191.538
0.452,50.028,4.639,4.827,176.306,242.462,191.550
0.453,50.074,4.631,4.815,176.299,242.505,191.563
0.455,50.119,4.622,4.803,176.293,242.548,191.579
0.456,50.164,4.612,4.792,176.288,242.589,191.595
0.457,50.208,4.601,4.782,176.284,242.629,191.611
0.458,50.250,4.590,4.774,176.280,242.669,191.626
0.459,50.291,4.579,4.767,176.278,242.707,191.641
0.460,50.332,4.568,4.761,176.276,242.745,191.655
0.462,50.372,4.558,4.756,176.276,242.784,191.667
0.463,50.413,4.549,4.751,176.276,242.823,191.678
0.464,50.454,4.541,4.747,176.276,242.863,191.687
0.465,50.497,4.535,4.743,176.277,242.905,191.694
0.466,50.542,4.531,4.740,176.278,242.950,191.698
0.467,50.589,4.528,4.736,176.279,242.997,191.700
0.469,50.640,4.525,4.730,176.280,243.048,191.699
0.470,50.695,4.523,4.723,176.280,243.104,191.695
0.471,50.755,4.519,4.713,176.281,243.163,191.688
0.472,50.821,4.514,4.699,176.281,243.228,191.677
0.473,50.893,4.507,4.681,176.280,243.298,191.663
