"T","Distance","Radius","FreeRadius","X","Y","Z"
0.000,0.000,1.192,1.192,232.872,207.811,185.450
0.002,0.175,1.217,1.217,232.957,207.908,185.332
0.003,0.348,1.243,1.243,233.042,208.003,185.215
0.005,0.518,1.269,1.269,233.128,208.096,185.101
0.007,0.684,1.298,1.298,233.216,208.184,184.991
0.008,0.845,1.328,1.328,233.307,208.266,184.887
0.010,0.999,1.361,1.361,233.401,208.340,184.790
0.012,1.146,1.397,1.397,233.498,208.406,184.702
0.013,1.285,1.434,1.434,233.600,208.461,184.623
0.015,1.418,1.472,1.472,233.706,208.504,184.557
0.016,1.546,1.508,1.508,233.818,208.535,184.502
0.018,1.670,1.540,1.540,233.931,208.555,184.458
0.020,1.788,1.568,1.568,234.045,208.565,184.424
0.021,1.902,1.589,1.589,234.155,208.569,184.399
0.023,2.009,1.603,1.603,234.261,208.566,184.381
0.025,2.107,1.613,1.613,234.358,208.561,184.370
0.026,2.194,1.619,1.619,234.445,208.553,184.363
0.028,2.268,1.622,1.622,234.518,208.546,184.360
0.030,2.327,1.625,1.625,234.577,208.540,184.360
0.031,2.369,1.628,1.628,234.619,208.537,184.361
0.033,2.398,1.632,1.632,234.647,208.536,184.363
0.035,2.416,1.636,1.636,234.666,208.536,184.365
0.036,2.426,1.640,1.640,234.676,208.537,184.367
0.038,2.432,1.644,1.644,234.681,208.537,184.367
0.039,2.435,1.647,1.647,234.684,208.536,184.366
0.041,2.440,1.648,1.648,234.687,208.533,184.363
0.043,2.451,1.648,1.648,234.693,208.527,184.357
0.044,2.469,1.647,1.647,234.705,208.518,184.348
0.046,2.495,1.646,1.646,234.724,208.505,184.335
0.048,2.527,1.643,1.643,234.748,208.490,184.319
0.049,2.563,1.641,1.641,234.775,208.474,184.302
0.051,2.601,1.639,1.639,234.805,208.458,184.284
0.053,2.640,1.638,1.638,234.835,208.442,184.266
0.054,2.677,1.636,1.636,234.865,208.429,184.248
0.056,2.712,1.635,1.635,234.893,208.418,184.231
0.058,2.741,1.633,1.633,234.918,208.411,184.217
0.059,2.764,1.631,1.631,234.938,208.409,184.206
0.061,2.782,1.628,1.628,234.954,208.411,184.198
0.063,2.795,1.625,1.625,234.966,208.414,184.194
0.064,2.805,1.621,1.621,234.975,208.417,184.193
0.066,2.813,1.618,1.618,234.983,208.418,184.195
0.067,2.822,1.616,1.616,234.989,208.415,184.202
0.069,2.837,1.616,1.616,234.995,208.406,184.212
0.071,2.861,1.619,1.619,235.002,208.388,184.226
0.072,2.894,1.624,1.624,235.010,208.361,184.244
0.074,2.940,1.630,1.630,235.020,208.323,184.266
0.076,2.996,1.633,1.633,235.037,208.275,184.291
0.077,3.062,1.633,1.633,235.062,208.219,184.314
0.079,3.138,1.625,1.625,235.101,208.157,184.336
0.081,3.225,1.607,1.607,235.156,208.092,184.352
0.082,3.326,1.578,1.578,235.231,208.025,184.361
0.084,3.444,1.540,1.540,235.329,207.959,184.361
0.086,3.586,1.494,1.494,235.455,207.896,184.349
0.087,3.755,1.444,1.444,235.612,207.839,184.322
0.089,3.955,1.393,1.393,235.801,207.788,184.281
0.090,4.182,1.344,1.344,236.017,207.744,184.225
0.092,4.430,1.300,1.300,236.253,207.709,184.157
0.094,4.692,1.263,1.263,236.502,207.682,184.080
0.095,4.963,1.233,1.233,236.758,207.663,183.995
0.097,5.235,1.212,1.212,237.015,207.654,183.905
0.099,5.502,1.203,1.203,237.265,207.654,183.811
0.100,5.758,1.204,1.204,237.502,207.665,183.716
0.102,5.996,1.219,1.219,237.720,207.685,183.621
0.104,6.214,1.246,1.246,237.915,207.716,183.529
0.105,6.411,1.281,1.281,238.087,207.754,183.441
0.107,6.587,1.321,1.321,238.237,207.796,183.359
0.109,6.742,1.363,1.363,238.365,207.840,183.284
0.110,6.876,1.403,1.403,238.473,207.883,183.218
0.112,6.987,1.438,1.438,238.562,207.922,183.162
0.113,7.076,1.466,1.466,238.631,207.955,183.119
0.115,7.140,1.488,1.488,238.682,207.978,183.088
0.117,7.179,1.504,1.504,238.716,207.990,183.073
0.118,7.198,1.516,1.516,238.735,207.991,183.071
0.120,7.210,1.523,1.523,238.744,207.986,183.078
0.122,7.222,1.527,1.527,238.745,207.979,183.087
0.123,7.231,1.529,1.529,238.744,207.974,183.094
0.125,7.233,1.530,1.530,238.744,207.975,183.095
0.127,7.251,1.534,1.534,238.749,207.989,183.083
0.128,7.295,1.543,1.543,238.764,208.018,183.054
0.130,7.371,1.559,1.559,238.792,208.067,183.003
0.132,7.487,1.585,1.585,238.837,208.140,182.925
0.133,7.638,1.621,1.621,238.898,208.234,182.823
0.135,7.813,1.665,1.665,238.972,208.341,182.706
0.137,8.001,1.715,1.715,239.054,208.454,182.581
0.138,8.190,1.767,1.767,239.142,208.564,182.455
0.140,8.369,1.819,1.819,239.230,208.665,182.336
0.141,8.527,1.867,1.867,239.316,208.748,182.233
0.143,8.655,1.909,1.909,239.396,208.807,182.152
0.145,8.745,1.944,1.944,239.466,208.833,182.102
0.146,8.805,1.973,1.973,239.523,208.821,182.088
0.148,8.872,1.993,1.993,239.567,208.773,182.107
0.150,8.966,2.007,2.007,239.601,208.698,182.152
0.151,9.084,2.012,2.012,239.628,208.603,182.216
0.153,9.218,2.009,2.009,239.648,208.494,182.292
0.155,9.360,1.999,1.999,239.664,208.379,182.373
0.156,9.500,1.987,1.987,239.679,208.264,182.452
0.158,9.628,1.974,1.974,239.694,208.158,182.522
0.160,9.736,1.964,1.964,239.711,208.066,182.576
0.161,9.818,1.959,1.959,239.733,207.995,182.609
0.163,9.877,1.962,1.962,239.756,207.942,182.623
0.164,9.920,1.972,1.972,239.781,207.906,182.620
0.166,9.955,1.984,1.984,239.803,207.885,182.605
0.168,9.988,1.996,1.996,239.823,207.876,182.579
0.169,10.024,2.004,2.004,239.838,207.876,182.547
0.171,10.062,2.005,2.005,239.845,207.884,182.511
0.173,10.101,1.995,1.995,239.844,207.897,182.473
0.174,10.142,1.975,1.975,239.832,207.913,182.438
0.176,10.183,1.948,1.948,239.810,207.928,182.407
0.178,10.222,1.918,1.918,239.784,207.940,182.381
0.179,10.255,1.889,1.889,239.758,207.944,182.361
0.181,10.280,1.864,1.864,239.739,207.937,182.346
0.183,10.305,1.847,1.847,239.732,207.915,182.337
0.184,10.347,1.836,1.836,239.744,207.874,182.334
0.186,10.420,1.829,1.829,239.779,207.811,182.338
0.188,10.532,1.821,1.821,239.845,207.721,182.349
0.189,10.690,1.806,1.806,239.946,207.602,182.368
0.191,10.892,1.781,1.781,240.081,207.453,182.394
0.192,11.131,1.741,1.741,240.244,207.281,182.425
0.194,11.396,1.685,1.685,240.426,207.092,182.461
0.196,11.677,1.619,1.619,240.619,206.892,182.500
0.197,11.963,1.549,1.549,240.815,206.687,182.540
0.199,12.246,1.480,1.480,241.006,206.483,182.581
0.201,12.514,1.418,1.418,241.185,206.286,182.620
0.202,12.758,1.369,1.369,241.342,206.103,182.657
0.204,12.970,1.337,1.337,241.471,205.940,182.690
0.206,13.147,1.319,1.319,241.572,205.797,182.719
0.207,13.294,1.313,1.313,241.648,205.673,182.745
0.209,13.417,1.316,1.316,241.703,205.566,182.769
0.211,13.518,1.325,1.325,241.743,205.475,182.791
0.212,13.603,1.336,1.336,241.770,205.398,182.814
0.214,13.675,1.349,1.349,241.791,205.334,182.838
0.215,13.737,1.361,1.361,241.809,205.280,182.863
0.217,13.794,1.374,1.374,241.828,205.235,182.891
0.219,13.849,1.386,1.386,241.853,205.197,182.922
0.220,13.904,1.398,1.398,241.883,205.165,182.956
0.222,13.960,1.409,1.409,241.917,205.139,182.991
0.224,14.015,1.419,1.419,241.955,205.116,183.026
0.225,14.069,1.428,1.428,241.993,205.096,183.058
0.227,14.121,1.436,1.436,242.032,205.079,183.087
0.229,14.169,1.441,1.441,242.070,205.062,183.111
0.230,14.211,1.443,1.443,242.105,205.045,183.128
0.232,14.249,1.442,1.442,242.136,205.027,183.137
0.234,14.282,1.438,1.438,242.163,205.007,183.138
0.235,14.313,1.430,1.430,242.185,204.986,183.133
0.237,14.341,1.419,1.419,242.203,204.965,183.127
0.238,14.366,1.408,1.408,242.216,204.944,183.123
0.240,14.388,1.397,1.397,242.226,204.925,183.127
0.242,14.411,1.386,1.386,242.232,204.908,183.141
0.243,14.443,1.377,1.377,242.236,204.895,183.170
0.245,14.492,1.370,1.370,242.236,204.886,183.218
0.247,14.563,1.365,1.365,242.234,204.882,183.290
0.248,14.659,1.361,1.361,242.232,204.883,183.385
0.250,14.771,1.359,1.359,242.234,204.886,183.497
0.252,14.893,1.358,1.358,242.247,204.886,183.619
0.253,15.020,1.358,1.358,242.276,204.882,183.743
0.255,15.150,1.358,1.358,242.327,204.868,183.860
0.257,15.283,1.359,1.359,242.406,204.841,183.965
0.258,15.430,1.359,1.359,242.518,204.798,184.048
0.260,15.603,1.357,1.357,242.670,204.735,184.103
0.262,15.818,1.354,1.354,242.867,204.649,184.122
0.263,16.083,1.349,1.349,243.106,204.539,184.103
0.265,16.388,1.341,1.341,243.378,204.409,184.053
0.266,16.722,1.332,1.332,243.668,204.262,183.978
0.268,17.071,1.325,1.325,243.965,204.103,183.885
0.270,17.423,1.319,1.319,244.256,203.935,183.782
0.271,17.763,1.316,1.316,244.530,203.762,183.676
0.273,18.080,1.318,1.318,244.773,203.589,183.572
0.275,18.360,1.326,1.326,244.974,203.418,183.478
0.276,18.593,1.339,1.339,245.121,203.254,183.401
0.278,18.782,1.355,1.355,245.214,203.100,183.344
0.280,18.933,1.374,1.374,245.266,202.963,183.306
0.281,19.054,1.394,1.394,245.286,202.845,183.289
0.283,19.147,1.414,1.414,245.286,202.752,183.291
0.285,19.215,1.434,1.434,245.278,202.688,183.313
0.286,19.267,1.454,1.454,245.273,202.657,183.354
0.288,19.330,1.473,1.473,245.281,202.665,183.416
0.289,19.431,1.493,1.493,245.315,202.715,183.497
0.291,19.587,1.515,1.515,245.383,202.812,183.598
0.293,19.793,1.537,1.537,245.485,202.949,183.715
0.294,20.039,1.562,1.562,245.611,203.117,183.842
0.296,20.309,1.587,1.587,245.754,203.304,183.974
0.298,20.592,1.612,1.612,245.906,203.502,184.107
0.299,20.873,1.636,1.636,246.058,203.700,184.235
0.301,21.137,1.658,1.658,246.203,203.888,184.352
0.303,21.373,1.676,1.676,246.333,204.056,184.455
0.304,21.565,1.690,1.690,246.440,204.193,184.536
0.306,21.703,1.700,1.700,246.517,204.292,184.593
0.308,21.791,1.708,1.708,246.567,204.356,184.629
0.309,21.839,1.715,1.715,246.595,204.390,184.647
0.311,21.854,1.722,1.722,246.605,204.400,184.653
0.313,21.863,1.730,1.730,246.602,204.392,184.651
0.314,21.886,1.741,1.741,246.590,204.373,184.647
0.316,21.916,1.755,1.755,246.575,204.347,184.644
0.317,21.947,1.771,1.771,246.561,204.320,184.647
0.319,21.973,1.788,1.788,246.553,204.298,184.661
0.321,22.003,1.806,1.806,246.554,204.286,184.688
0.322,22.043,1.825,1.825,246.565,204.284,184.727
0.324,22.094,1.842,1.842,246.585,204.290,184.773
0.326,22.155,1.859,1.859,246.613,204.305,184.824
0.327,22.223,1.874,1.874,246.650,204.328,184.877
0.329,22.297,1.890,1.890,246.695,204.358,184.927
0.331,22.376,1.904,1.904,246.747,204.395,184.973
0.332,22.458,1.918,1.918,246.807,204.438,185.011
0.334,22.545,1.931,1.931,246.874,204.486,185.037
0.336,22.636,1.944,1.944,246.947,204.539,185.050
0.337,22.732,1.957,1.957,247.024,204.595,185.054
0.339,22.831,1.968,1.968,247.105,204.652,185.050
0.340,22.931,1.977,1.977,247.188,204.708,185.041
0.342,23.030,1.985,1.985,247.271,204.761,185.030
0.344,23.126,1.990,1.990,247.353,204.810,185.018
0.345,23.217,1.994,1.994,247.433,204.853,185.010
0.347,23.300,1.996,1.996,247.508,204.888,185.007
0.349,23.375,1.997,1.997,247.579,204.912,185.012
0.350,23.442,2.000,2.000,247.643,204.927,185.026
0.352,23.504,2.004,2.004,247.701,204.934,185.045
0.354,23.561,2.012,2.012,247.753,204.934,185.070
0.355,23.614,2.022,2.022,247.798,204.929,185.097
0.357,23.663,2.035,2.035,247.837,204.921,185.124
0.359,23.707,2.049,2.049,247.870,204.910,185.151
0.360,23.744,2.063,2.063,247.897,204.900,185.175
0.362,23.773,2.076,2.076,247.917,204.891,185.194
0.363,23.792,2.086,2.086,247.930,204.885,185.207
0.365,23.803,2.091,2.091,247.939,204.883,185.213
0.367,23.809,2.093,2.093,247.944,204.884,185.217
0.368,23.815,2.092,2.092,247.948,204.888,185.218
0.370,23.824,2.088,2.088,247.953,204.895,185.219
0.372,23.837,2.081,2.081,247.961,204.905,185.223
0.373,23.857,2.072,2.072,247.974,204.917,185.231
0.375,23.885,2.062,2.062,247.994,204.932,185.245
0.377,23.926,2.051,2.051,248.023,204.950,185.267
0.378,23.980,2.040,2.040,248.062,204.969,185.299
0.380,24.048,2.028,2.028,248.111,204.991,185.340
0.382,24.127,2.018,2.018,248.169,205.014,185.390
0.383,24.217,2.009,2.009,248.234,205.037,185.447
0.385,24.316,2.002,2.002,248.305,205.061,185.511
0.387,24.422,1.997,1.997,248.381,205.085,185.581
0.388,24.533,1.993,1.993,248.461,205.109,185.655
0.390,24.648,1.992,1.992,248.543,205.131,185.732
0.391,24.765,1.992,1.992,248.626,205.153,185.812
0.393,24.883,1.993,1.993,248.709,205.172,185.894
0.395,25.001,1.995,1.995,248.791,205.189,185.977
0.396,25.120,1.999,1.999,248.872,205.204,186.062
0.398,25.239,2.006,2.006,248.953,205.216,186.148
0.400,25.358,2.018,2.018,249.033,205.224,186.236
0.401,25.477,2.035,2.035,249.111,205.229,186.326
0.403,25.596,2.059,2.059,249.187,205.229,186.417
0.405,25.715,2.092,2.092,249.262,205.225,186.510
0.406,25.834,2.133,2.133,249.334,205.216,186.604
0.408,25.952,2.179,2.179,249.404,205.203,186.699
0.410,26.070,2.229,2.229,249.471,205.185,186.793
0.411,26.184,2.279,2.279,249.535,205.164,186.887
0.413,26.295,2.326,2.326,249.594,205.141,186.977
0.414,26.399,2.368,2.368,249.648,205.116,187.062
0.416,26.496,2.403,2.403,249.696,205.091,187.142
0.418,26.584,2.431,2.431,249.739,205.066,187.215
0.419,26.661,2.454,2.454,249.774,205.042,187.280
0.421,26.726,2.472,2.472,249.802,205.020,187.334
0.423,26.779,2.486,2.486,249.823,205.000,187.379
0.424,26.821,2.497,2.497,249.838,204.983,187.414
0.426,26.852,2.505,2.505,249.848,204.969,187.440
0.428,26.875,2.511,2.511,249.853,204.957,187.459
0.429,26.890,2.516,2.516,249.856,204.948,187.471
0.431,26.899,2.519,2.519,249.856,204.941,187.476
0.433,26.902,2.521,2.521,249.856,204.938,187.476
0.434,26.907,2.523,2.523,249.857,204.937,187.472
0.436,26.915,2.524,2.524,249.858,204.939,187.464
0.438,26.928,2.524,2.524,249.865,204.944,187.455
0.439,26.948,2.523,2.523,249.882,204.949,187.446
0.441,26.981,2.519,2.519,249.914,204.956,187.440
0.442,27.033,2.513,2.513,249.966,204.961,187.439
0.444,27.111,2.504,2.504,250.044,204.965,187.447
0.446,27.220,2.492,2.492,250.151,204.967,187.466
0.447,27.366,2.480,2.480,250.294,204.965,187.498
0.449,27.556,2.477,2.477,250.477,204.958,187.545
0.451,27.791,2.489,2.489,250.703,204.946,187.609
0.452,28.067,2.522,2.522,250.968,204.930,187.686
0.454,28.371,2.583,2.583,251.260,204.911,187.767
0.456,28.691,2.678,2.678,251.569,204.891,187.846
0.457,29.016,2.803,2.803,251.887,204.870,187.914
0.459,29.336,2.944,2.944,252.202,204.851,187.965
0.461,29.640,3.088,3.088,252.504,204.835,187.991
0.462,29.920,3.224,3.224,252.784,204.823,187.984
0.464,30.172,3.337,3.337,253.032,204.817,187.937
0.465,30.399,3.416,3.416,253.240,204.819,187.845
0.467,30.614,3.458,3.458,253.411,204.827,187.717
0.469,30.824,3.470,3.470,253.551,204.845,187.561
0.470,31.033,3.459,3.459,253.665,204.870,187.388
0.472,31.239,3.433,3.433,253.759,204.905,187.208
0.474,31.438,3.398,3.398,253.837,204.949,187.030
0.475,31.626,3.363,3.363,253.906,205.002,186.864
0.477,31.795,3.332,3.332,253.971,205.066,186.721
0.479,31.944,3.304,3.304,254.036,205.141,186.610
0.480,32.077,3.279,3.279,254.106,205.227,186.537
0.482,32.205,3.257,3.257,254.181,205.325,186.501
0.484,32.341,3.236,3.236,254.258,205.437,186.498
0.485,32.493,3.218,3.218,254.338,205.562,186.527
0.487,32.665,3.201,3.201,254.420,205.703,186.583
0.488,32.860,3.189,3.189,254.502,205.860,186.665
0.490,33.080,3.183,3.183,254.584,206.035,186.770
0.492,33.323,3.186,3.186,254.665,206.227,186.894
0.493,33.590,3.201,3.201,254.745,206.439,187.036
0.495,33.877,3.229,3.229,254.822,206.668,187.191
0.497,34.177,3.273,3.273,254.896,206.908,187.356
0.498,34.482,3.327,3.327,254.967,207.151,187.525
0.500,34.784,3.387,3.387,255.036,207.392,187.694
0.502,35.075,3.449,3.449,255.101,207.623,187.859
0.503,35.348,3.508,3.508,255.163,207.838,188.016
0.505,35.595,3.559,3.559,255.222,208.030,188.159
0.507,35.809,3.599,3.599,255.276,208.193,188.285
0.508,35.981,3.627,3.627,255.327,208.320,188.390
0.510,36.113,3.646,3.646,255.374,208.412,188.472
0.512,36.211,3.657,3.657,255.418,208.473,188.535
0.513,36.281,3.662,3.662,255.457,208.510,188.581
0.515,36.332,3.662,3.662,255.494,208.526,188.612
0.516,36.371,3.660,3.660,255.527,208.527,188.632
0.518,36.405,3.655,3.655,255.558,208.519,188.643
0.520,36.435,3.649,3.649,255.585,208.507,188.648
0.521,36.463,3.643,3.643,255.611,208.496,188.649
0.523,36.486,3.637,3.637,255.633,208.490,188.649
0.525,36.507,3.633,3.633,255.654,208.492,188.652
0.526,36.529,3.630,3.630,255.672,208.500,188.663
0.528,36.560,3.629,3.629,255.688,208.514,188.686
0.530,36.607,3.631,3.631,255.701,208.533,188.726
0.531,36.674,3.636,3.636,255.713,208.557,188.788
0.533,36.767,3.645,3.645,255.722,208.586,188.876
0.535,36.891,3.658,3.658,255.730,208.618,188.994
0.536,37.049,3.674,3.674,255.735,208.654,189.148
0.538,37.245,3.695,3.695,255.738,208.693,189.340
0.539,37.471,3.718,3.718,255.740,208.734,189.563
0.541,37.717,3.742,3.742,255.739,208.776,189.806
0.543,37.974,3.766,3.766,255.738,208.818,190.059
0.544,38.231,3.789,3.789,255.734,208.859,190.313
0.546,38.479,3.808,3.808,255.730,208.899,190.557
0.548,38.707,3.824,3.824,255.724,208.936,190.782
0.549,38.905,3.838,3.838,255.718,208.970,190.977
0.551,39.064,3.850,3.850,255.710,208.999,191.133
0.553,39.178,3.861,3.861,255.702,209.023,191.244
0.554,39.253,3.873,3.873,255.694,209.043,191.316
0.556,39.297,3.886,3.886,255.687,209.061,191.356
0.558,39.320,3.900,3.900,255.682,209.076,191.372
0.559,39.335,3.915,3.915,255.679,209.091,191.372
0.561,39.352,3.930,3.930,255.680,209.105,191.363
0.563,39.372,3.943,3.943,255.684,209.121,191.352
0.564,39.393,3.952,3.952,255.693,209.139,191.348
0.566,39.420,3.958,3.958,255.708,209.161,191.357
0.567,39.462,3.959,3.959,255.728,209.186,191.383
0.569,39.516,3.956,3.956,255.753,209.213,191.423
0.571,39.579,3.949,3.949,255.781,209.241,191.472
0.572,39.648,3.941,3.941,255.812,209.270,191.527
0.574,39.719,3.931,3.931,255.844,209.298,191.584
0.576,39.788,3.921,3.921,255.876,209.323,191.640
0.577,39.851,3.912,3.912,255.907,209.345,191.690
0.579,39.904,3.903,3.903,255.935,209.363,191.730
0.581,39.943,3.895,3.895,255.961,209.375,191.757
0.582,39.970,3.889,3.889,255.983,209.381,191.772
0.584,39.988,3.884,3.884,256.000,209.383,191.776
0.586,40.000,3.881,3.881,256.012,209.383,191.774
0.587,40.010,3.879,3.879,256.019,209.380,191.767
0.589,40.017,3.877,3.877,256.020,209.378,191.761
0.590,40.024,3.876,3.876,256.014,209.377,191.757
0.592,40.037,3.873,3.873,256.001,209.378,191.759
0.594,40.061,3.867,3.867,255.981,209.383,191.770
0.595,40.098,3.858,3.858,255.953,209.392,191.794
0.597,40.149,3.843,3.843,255.921,209.406,191.831
0.599,40.211,3.823,3.823,255.890,209.422,191.882
0.600,40.283,3.795,3.795,255.867,209.437,191.949
0.602,40.367,3.759,3.759,255.855,209.451,192.030
0.604,40.466,3.715,3.715,255.861,209.460,192.128
0.605,40.584,3.660,3.660,255.891,209.464,192.243
0.607,40.729,3.594,3.594,255.950,209.459,192.375
0.609,40.905,3.518,3.518,256.043,209.444,192.525
0.610,41.120,3.438,3.438,256.174,209.418,192.693
0.612,41.370,3.358,3.358,256.338,209.382,192.878
0.613,41.649,3.281,3.281,256.528,209.341,193.078
0.615,41.950,3.214,3.214,256.735,209.299,193.291
0.617,42.265,3.160,3.160,256.951,209.258,193.517
0.618,42.587,3.122,3.122,257.169,209.222,193.752
0.620,42.911,3.098,3.098,257.380,209.195,193.995
0.622,43.229,3.087,3.087,257.577,209.181,194.245
0.623,43.538,3.088,3.088,257.752,209.183,194.500
0.625,43.834,3.100,3.100,257.899,209.203,194.756
0.627,44.118,3.121,3.121,258.028,209.237,195.008
0.628,44.389,3.149,3.149,258.146,209.279,195.247
0.630,44.643,3.179,3.179,258.263,209.326,195.468
0.632,44.878,3.205,3.205,258.387,209.372,195.663
0.633,45.097,3.222,3.222,258.528,209.411,195.824
0.635,45.305,3.225,3.225,258.695,209.439,195.946
0.637,45.520,3.208,3.208,258.897,209.452,196.020
0.638,45.767,3.169,3.169,259.143,209.443,196.039
0.640,46.063,3.112,3.112,259.435,209.414,196.005
0.641,46.404,3.046,3.046,259.766,209.374,195.929
0.643,46.779,2.977,2.977,260.124,209.334,195.827
0.645,47.175,2.913,2.913,260.502,209.305,195.711
0.646,47.578,2.860,2.860,260.889,209.298,195.598
0.648,47.978,2.826,2.826,261.275,209.322,195.500
0.650,48.366,2.814,2.814,261.651,209.390,195.433
0.651,48.743,2.828,2.828,262.008,209.511,195.409
0.653,49.121,2.871,2.871,262.336,209.696,195.444
0.655,49.517,2.946,2.946,262.630,209.943,195.538
0.656,49.933,3.058,3.058,262.890,210.236,195.679
0.658,50.364,3.207,3.207,263.116,210.559,195.853
0.660,50.799,3.384,3.384,263.310,210.896,196.048
0.661,51.222,3.574,3.574,263.471,211.230,196.251
0.663,51.616,3.760,3.760,263.599,211.546,196.449
0.664,51.963,3.928,3.928,263.695,211.827,196.628
0.666,52.244,4.061,4.061,263.760,212.058,196.775
0.668,52.441,4.147,4.147,263.793,212.222,196.879
0.669,52.558,4.185,4.185,263.801,212.322,196.940
0.671,52.612,4.187,4.187,263.791,212.368,196.967
