"T","Distance","Radius","FreeRadius","X","Y","Z"
0.000,0.000,1.192,1.192,232.872,207.811,185.450
0.002,0.168,1.157,1.157,232.988,207.847,185.333
0.004,0.334,1.129,1.129,233.101,207.883,185.218
0.007,0.495,1.114,1.114,233.211,207.923,185.106
0.009,0.650,1.121,1.121,233.314,207.967,185.000
0.011,0.795,1.154,1.154,233.409,208.018,184.902
0.013,0.931,1.212,1.212,233.493,208.075,184.812
0.015,1.057,1.283,1.283,233.565,208.142,184.734
0.018,1.173,1.353,1.353,233.622,208.219,184.668
0.020,1.283,1.408,1.408,233.662,208.307,184.617
0.022,1.393,1.438,1.438,233.683,208.409,184.582
0.024,1.511,1.445,1.445,233.684,208.526,184.566
0.027,1.644,1.436,1.436,233.663,208.658,184.569
0.029,1.794,1.417,1.417,233.623,208.801,184.589
0.031,1.959,1.395,1.395,233.566,208.952,184.624
0.033,2.137,1.375,1.375,233.495,209.108,184.671
0.035,2.323,1.362,1.362,233.413,209.265,184.730
0.038,2.515,1.357,1.357,233.323,209.419,184.798
0.040,2.707,1.363,1.363,233.226,209.568,184.872
0.042,2.895,1.384,1.384,233.127,209.707,184.951
0.044,3.075,1.414,1.414,233.026,209.833,185.032
0.046,3.244,1.446,1.446,232.928,209.942,185.114
0.049,3.396,1.472,1.472,232.834,210.032,185.194
0.051,3.531,1.484,1.484,232.747,210.100,185.271
0.053,3.652,1.478,1.478,232.665,210.151,185.344
0.055,3.760,1.463,1.463,232.590,210.184,185.414
0.058,3.856,1.446,1.446,232.522,210.204,185.479
0.060,3.942,1.436,1.436,232.460,210.212,185.538
0.062,4.019,1.442,1.442,232.405,210.210,185.592
0.064,4.088,1.463,1.463,232.357,210.200,185.640
0.066,4.147,1.492,1.492,232.316,210.185,185.681
0.069,4.199,1.521,1.521,232.282,210.167,185.715
0.071,4.240,1.543,1.543,232.256,210.148,185.741
0.073,4.272,1.552,1.552,232.237,210.131,185.759
0.075,4.294,1.550,1.550,232.224,210.116,185.770
0.077,4.310,1.542,1.542,232.216,210.105,185.779
0.080,4.322,1.531,1.531,232.212,210.099,185.788
0.082,4.335,1.522,1.522,232.209,210.098,185.801
0.084,4.356,1.515,1.515,232.207,210.103,185.820
0.086,4.388,1.508,1.508,232.204,210.116,185.850
0.088,4.436,1.498,1.498,232.199,210.137,185.893
0.091,4.504,1.483,1.483,232.190,210.167,185.952
0.093,4.594,1.460,1.460,232.175,210.208,186.032
0.095,4.711,1.433,1.433,232.153,210.259,186.134
0.097,4.857,1.406,1.406,232.124,210.323,186.262
0.100,5.027,1.384,1.384,232.087,210.395,186.412
0.102,5.215,1.371,1.371,232.046,210.475,186.577
0.104,5.416,1.370,1.370,232.000,210.559,186.754
0.106,5.624,1.379,1.379,231.953,210.644,186.937
0.108,5.832,1.399,1.399,231.905,210.728,187.121
0.111,6.034,1.429,1.429,231.858,210.808,187.301
0.113,6.224,1.466,1.466,231.815,210.882,187.471
0.115,6.397,1.509,1.509,231.775,210.946,187.626
0.117,6.546,1.550,1.550,231.742,210.998,187.762
0.119,6.665,1.586,1.586,231.716,211.036,187.872
0.122,6.752,1.611,1.611,231.698,211.057,187.955
0.124,6.812,1.622,1.622,231.689,211.066,188.014
0.126,6.852,1.623,1.623,231.687,211.066,188.053
0.128,6.878,1.618,1.618,231.691,211.059,188.077
0.131,6.897,1.612,1.612,231.701,211.049,188.091
0.133,6.916,1.610,1.610,231.715,211.040,188.099
0.135,6.936,1.612,1.612,231.733,211.034,188.106
0.137,6.959,1.617,1.617,231.754,211.036,188.116
0.139,6.991,1.625,1.625,231.777,211.047,188.133
0.142,7.037,1.635,1.635,231.802,211.073,188.162
0.144,7.104,1.647,1.647,231.827,211.116,188.208
0.146,7.195,1.662,1.662,231.852,211.176,188.272
0.148,7.305,1.682,1.682,231.876,211.250,188.350
0.150,7.431,1.707,1.707,231.900,211.335,188.440
0.153,7.568,1.740,1.740,231.921,211.427,188.538
0.155,7.711,1.780,1.780,231.941,211.524,188.642
0.157,7.856,1.822,1.822,231.958,211.621,188.749
0.159,7.999,1.863,1.863,231.972,211.715,188.855
0.162,8.134,1.898,1.898,231.982,211.803,188.957
0.164,8.258,1.926,1.926,231.988,211.881,189.053
0.166,8.367,1.946,1.946,231.990,211.947,189.139
0.168,8.455,1.960,1.960,231.987,211.997,189.212
0.170,8.525,1.971,1.971,231.980,212.031,189.273
0.173,8.579,1.980,1.980,231.969,212.051,189.322
0.175,8.620,1.989,1.989,231.956,212.060,189.360
0.177,8.653,1.998,1.998,231.942,212.061,189.389
0.179,8.679,2.008,2.008,231.928,212.055,189.410
0.181,8.700,2.020,2.020,231.916,212.045,189.425
0.184,8.718,2.034,2.034,231.906,212.034,189.435
0.186,8.731,2.047,2.047,231.900,212.023,189.440
0.188,8.739,2.055,2.055,231.899,212.016,189.443
0.190,8.745,2.055,2.055,231.904,212.014,189.444
0.192,8.757,2.042,2.042,231.915,212.020,189.445
0.195,8.778,2.016,2.016,231.929,212.035,189.446
0.197,8.806,1.982,1.982,231.941,212.060,189.449
0.199,8.843,1.949,1.949,231.947,212.096,189.454
0.201,8.892,1.922,1.922,231.941,212.145,189.460
0.204,8.959,1.909,1.909,231.920,212.207,189.470
0.206,9.047,1.903,1.903,231.877,212.283,189.484
0.208,9.163,1.892,1.892,231.809,212.376,189.502
0.210,9.312,1.866,1.866,231.711,212.485,189.525
0.212,9.498,1.811,1.811,231.578,212.611,189.554
0.215,9.727,1.723,1.723,231.405,212.757,189.589
0.217,10.000,1.620,1.620,231.190,212.921,189.630
0.219,10.309,1.521,1.521,230.942,213.100,189.675
0.221,10.644,1.448,1.448,230.668,213.287,189.723
0.223,10.995,1.420,1.420,230.378,213.478,189.769
0.226,11.352,1.438,1.438,230.080,213.669,189.814
0.228,11.704,1.486,1.486,229.782,213.853,189.853
0.230,12.041,1.547,1.547,229.494,214.026,189.885
0.232,12.354,1.605,1.605,229.225,214.183,189.907
0.235,12.632,1.647,1.647,228.982,214.318,189.918
0.237,12.866,1.672,1.672,228.775,214.427,189.914
0.239,13.048,1.683,1.683,228.611,214.505,189.894
0.241,13.179,1.681,1.681,228.495,214.552,189.859
0.243,13.270,1.669,1.669,228.420,214.573,189.812
0.246,13.337,1.653,1.653,228.381,214.574,189.757
0.248,13.395,1.640,1.640,228.371,214.563,189.701
0.250,13.454,1.637,1.637,228.386,214.544,189.647
0.252,13.515,1.653,1.653,228.419,214.526,189.599
0.254,13.573,1.692,1.692,228.464,214.514,189.564
0.257,13.629,1.746,1.746,228.516,214.514,189.544
0.259,13.685,1.797,1.797,228.568,214.533,189.545
0.261,13.754,1.829,1.829,228.615,214.577,189.571
0.263,13.855,1.827,1.827,228.652,214.653,189.627
0.265,13.992,1.788,1.788,228.675,214.759,189.710
0.268,14.163,1.733,1.733,228.686,214.893,189.817
0.270,14.362,1.684,1.684,228.686,215.048,189.940
0.272,14.582,1.665,1.665,228.673,215.222,190.074
0.274,14.816,1.696,1.696,228.650,215.408,190.215
0.277,15.060,1.767,1.767,228.616,215.604,190.355
0.279,15.305,1.853,1.853,228.572,215.804,190.490
0.281,15.546,1.926,1.926,228.519,216.005,190.614
0.283,15.778,1.961,1.961,228.456,216.200,190.721
0.285,15.995,1.943,1.943,228.385,216.387,190.806
0.288,16.195,1.890,1.890,228.307,216.561,190.864
0.290,16.380,1.824,1.824,228.221,216.722,190.897
0.292,16.553,1.765,1.765,228.132,216.870,190.907
0.294,16.717,1.734,1.734,228.040,217.005,190.897
0.296,16.873,1.736,1.736,227.948,217.129,190.872
0.299,17.023,1.762,1.762,227.858,217.242,190.835
0.301,17.165,1.804,1.804,227.771,217.345,190.788
0.303,17.299,1.854,1.854,227.690,217.438,190.736
0.305,17.424,1.905,1.905,227.616,217.522,190.682
0.308,17.536,1.952,1.952,227.552,217.598,190.628
0.310,17.635,1.992,1.992,227.500,217.666,190.579
0.312,17.719,2.022,2.022,227.461,217.726,190.536
0.314,17.790,2.038,2.038,227.432,217.780,190.500
0.316,17.849,2.042,2.042,227.410,217.826,190.471
0.319,17.897,2.040,2.040,227.394,217.866,190.447
0.321,17.937,2.036,2.036,227.380,217.898,190.429
0.323,17.969,2.037,2.037,227.366,217.923,190.416
0.325,17.995,2.047,2.047,227.350,217.942,190.406
0.327,18.021,2.063,2.063,227.327,217.954,190.401
0.330,18.052,2.076,2.076,227.296,217.959,190.399
0.332,18.094,2.082,2.082,227.255,217.957,190.400
0.334,18.150,2.073,2.073,227.199,217.949,190.403
0.336,18.221,2.048,2.048,227.130,217.936,190.409
0.338,18.305,2.017,2.017,227.047,217.924,190.415
0.341,18.399,1.989,1.989,226.953,217.918,190.422
0.343,18.502,1.975,1.975,226.851,217.924,190.428
0.345,18.614,1.983,1.983,226.742,217.947,190.434
0.347,18.737,2.011,2.011,226.627,217.992,190.438
0.350,18.876,2.049,2.049,226.509,218.067,190.440
0.352,19.037,2.091,2.091,226.391,218.174,190.440
0.354,19.225,2.127,2.127,226.273,218.322,190.435
0.356,19.449,2.156,2.156,226.157,218.513,190.427
0.358,19.716,2.181,2.181,226.047,218.755,190.413
0.361,20.023,2.213,2.213,225.941,219.044,190.395
0.363,20.365,2.257,2.257,225.841,219.369,190.373
0.365,20.731,2.322,2.322,225.746,219.722,190.346
0.367,21.113,2.409,2.409,225.656,220.092,190.316
0.369,21.502,2.517,2.517,225.571,220.470,190.283
0.372,21.888,2.643,2.643,225.490,220.846,190.248
0.374,22.261,2.786,2.786,225.414,221.209,190.210
0.376,22.612,2.942,2.942,225.343,221.550,190.171
0.378,22.931,3.102,3.102,225.275,221.860,190.131
0.381,23.209,3.254,3.254,225.211,222.128,190.090
0.383,23.438,3.389,3.389,225.152,222.345,190.049
0.385,23.621,3.497,3.497,225.096,222.514,190.009
0.387,23.763,3.575,3.575,225.044,222.640,189.970
0.389,23.871,3.630,3.630,224.997,222.730,189.933
0.392,23.952,3.671,3.671,224.953,222.789,189.899
0.394,24.012,3.705,3.705,224.914,222.823,189.868
0.396,24.059,3.737,3.737,224.878,222.839,189.841
0.398,24.097,3.767,3.767,224.847,222.841,189.819
0.400,24.128,3.796,3.796,224.821,222.838,189.803
0.403,24.153,3.821,3.821,224.799,222.833,189.794
0.405,24.171,3.840,3.840,224.781,222.834,189.791
0.407,24.189,3.855,3.855,224.768,222.844,189.796
0.409,24.214,3.867,3.867,224.758,222.865,189.807
0.412,24.248,3.877,3.877,224.750,222.893,189.823
0.414,24.289,3.889,3.889,224.744,222.929,189.844
0.416,24.337,3.903,3.903,224.738,222.970,189.868
0.418,24.390,3.919,3.919,224.731,223.016,189.893
0.420,24.446,3.938,3.938,224.722,223.065,189.918
0.423,24.504,3.957,3.957,224.710,223.116,189.943
0.425,24.563,3.978,3.978,224.694,223.168,189.966
0.427,24.621,3.998,3.998,224.672,223.219,189.986
0.429,24.680,4.020,4.020,224.645,223.268,190.001
0.431,24.738,4.042,4.042,224.610,223.314,190.011
0.434,24.798,4.066,4.066,224.569,223.358,190.014
0.436,24.861,4.092,4.092,224.523,223.400,190.010
0.438,24.927,4.120,4.120,224.471,223.439,189.999
0.440,24.998,4.152,4.152,224.415,223.477,189.979
0.442,25.075,4.188,4.188,224.354,223.514,189.949
0.445,25.158,4.230,4.230,224.291,223.549,189.908
0.447,25.249,4.276,4.276,224.224,223.584,189.857
0.449,25.349,4.325,4.325,224.156,223.618,189.793
0.451,25.458,4.374,4.374,224.085,223.652,189.717
0.454,25.577,4.421,4.421,224.014,223.685,189.627
0.456,25.706,4.464,4.464,223.942,223.720,189.527
0.458,25.839,4.502,4.502,223.870,223.757,189.420
0.460,25.974,4.540,4.540,223.798,223.799,189.314
0.462,26.106,4.581,4.581,223.727,223.848,189.214
0.465,26.232,4.627,4.627,223.658,223.904,189.125
0.467,26.351,4.680,4.680,223.590,223.970,189.053
0.469,26.465,4.737,4.737,223.524,224.048,189.003
0.471,26.578,4.791,4.791,223.461,224.139,188.982
0.473,26.700,4.837,4.837,223.401,224.245,188.994
0.476,26.845,4.869,4.869,223.344,224.368,189.045
0.478,27.024,4.887,4.887,223.291,224.509,189.141
0.480,27.237,4.899,4.899,223.241,224.666,189.277
0.482,27.479,4.912,4.912,223.196,224.834,189.445
0.485,27.744,4.933,4.933,223.155,225.009,189.639
0.487,28.022,4.969,4.969,223.117,225.186,189.850
0.489,28.306,5.015,5.015,223.082,225.361,190.071
0.491,28.588,5.066,5.066,223.052,225.530,190.295
0.493,28.859,5.115,5.115,223.024,225.689,190.513
0.496,29.110,5.156,5.156,223.000,225.832,190.718
0.498,29.333,5.185,5.185,222.979,225.955,190.903
0.500,29.520,5.203,5.203,222.962,226.054,191.059
0.502,29.662,5.212,5.212,222.947,226.127,191.182
0.504,29.765,5.217,5.217,222.936,226.174,191.272
0.507,29.832,5.217,5.217,222.929,226.200,191.334
0.509,29.871,5.216,5.216,222.925,226.208,191.371
0.511,29.888,5.216,5.216,222.926,226.202,191.387
0.513,29.906,5.219,5.219,222.931,226.185,191.386
0.515,29.936,5.227,5.227,222.942,226.161,191.372
0.518,29.976,5.240,5.240,222.957,226.133,191.347
0.520,30.022,5.252,5.252,222.978,226.105,191.317
0.522,30.071,5.257,5.257,223.004,226.081,191.284
0.524,30.119,5.248,5.248,223.037,226.063,191.253
0.527,30.166,5.219,5.219,223.075,226.055,191.227
0.529,30.213,5.173,5.173,223.118,226.056,191.209
0.531,30.261,5.121,5.121,223.164,226.067,191.203
0.533,30.314,5.073,5.073,223.212,226.088,191.212
0.535,30.377,5.041,5.041,223.261,226.119,191.240
0.538,30.457,5.030,5.030,223.308,226.159,191.290
0.540,30.558,5.033,5.033,223.353,226.209,191.365
0.542,30.684,5.038,5.038,223.394,226.269,191.468
0.544,30.841,5.033,5.033,223.431,226.339,191.604
0.546,31.032,5.007,5.007,223.460,226.419,191.774
0.549,31.261,4.958,4.958,223.482,226.509,191.984
0.551,31.525,4.893,4.893,223.496,226.608,192.228
0.553,31.816,4.822,4.822,223.505,226.715,192.499
0.555,32.124,4.755,4.755,223.510,226.827,192.786
0.558,32.440,4.697,4.697,223.513,226.944,193.080
0.560,32.754,4.652,4.652,223.516,227.062,193.370
0.562,33.055,4.619,4.619,223.521,227.181,193.647
0.564,33.335,4.598,4.598,223.530,227.299,193.901
0.566,33.585,4.587,4.587,223.546,227.414,194.122
0.569,33.797,4.585,4.585,223.569,227.524,194.301
0.571,33.964,4.588,4.588,223.602,227.628,194.428
0.573,34.089,4.591,4.591,223.647,227.724,194.494
0.575,34.194,4.591,4.591,223.703,227.813,194.503
0.577,34.308,4.583,4.583,223.771,227.896,194.467
0.580,34.440,4.569,4.569,223.848,227.976,194.395
0.582,34.592,4.551,4.551,223.936,228.055,194.300
0.584,34.756,4.531,4.531,224.031,228.134,194.192
0.586,34.928,4.514,4.514,224.135,228.216,194.083
0.588,35.100,4.500,4.500,224.246,228.303,193.983
0.591,35.269,4.485,4.485,224.363,228.395,193.904
0.593,35.435,4.465,4.465,224.485,228.497,193.856
0.595,35.604,4.437,4.437,224.612,228.608,193.852
0.597,35.790,4.397,4.397,224.743,228.732,193.898
0.600,35.999,4.350,4.350,224.876,228.864,193.990
0.602,36.230,4.306,4.306,225.008,229.003,194.120
0.604,36.480,4.279,4.279,225.139,229.144,194.279
0.606,36.741,4.277,4.277,225.265,229.285,194.458
0.608,37.005,4.309,4.309,225.385,229.422,194.649
0.611,37.264,4.363,4.363,225.498,229.553,194.843
0.613,37.510,4.424,4.424,225.600,229.673,195.032
0.615,37.734,4.479,4.479,225.690,229.779,195.207
0.617,37.926,4.513,4.513,225.766,229.869,195.359
0.619,38.078,4.523,4.523,225.826,229.939,195.480
0.622,38.184,4.516,4.516,225.868,229.987,195.565
0.624,38.251,4.502,4.502,225.896,230.017,195.617
0.626,38.283,4.487,4.487,225.911,230.031,195.643
0.628,38.289,4.480,4.480,225.915,230.032,195.646
0.631,38.306,4.480,4.480,225.911,230.024,195.632
0.633,38.338,4.484,4.484,225.900,230.009,195.605
0.635,38.378,4.492,4.492,225.885,229.991,195.571
0.637,38.422,4.501,4.501,225.868,229.974,195.536
0.639,38.462,4.510,4.510,225.852,229.959,195.502
0.642,38.492,4.519,4.519,225.837,229.951,195.477
0.644,38.509,4.528,4.528,225.828,229.952,195.464
0.646,38.521,4.537,4.537,225.823,229.964,195.465
0.648,38.544,4.546,4.546,225.824,229.983,195.477
0.650,38.577,4.554,4.554,225.830,230.009,195.498
0.653,38.618,4.563,4.563,225.840,230.038,195.524
0.655,38.662,4.571,4.571,225.853,230.069,195.552
0.657,38.706,4.580,4.580,225.870,230.100,195.579
0.659,38.748,4.587,4.587,225.889,230.128,195.603
0.662,38.784,4.590,4.590,225.911,230.152,195.620
0.664,38.814,4.585,4.585,225.934,230.169,195.627
0.666,38.840,4.569,4.569,225.959,230.176,195.622
0.668,38.873,4.537,4.537,225.984,230.173,195.601
0.670,38.917,4.494,4.494,226.009,230.161,195.568
0.673,38.967,4.448,4.448,226.032,230.142,195.527
0.675,39.018,4.407,4.407,226.052,230.120,195.486
0.677,39.062,4.379,4.379,226.067,230.099,195.450
0.679,39.093,4.370,4.370,226.075,230.082,195.425
0.681,39.105,4.376,4.376,226.074,230.073,195.418
0.684,39.123,4.395,4.395,226.064,230.075,195.433
0.686,39.175,4.422,4.422,226.043,230.091,195.477
0.688,39.268,4.452,4.452,226.009,230.125,195.557
0.690,39.409,4.482,4.482,225.960,230.180,195.677
0.692,39.603,4.505,4.505,225.896,230.258,195.843
0.695,39.844,4.515,4.515,225.818,230.358,196.048
0.697,40.123,4.506,4.506,225.728,230.473,196.286
0.699,40.430,4.475,4.475,225.628,230.601,196.546
0.701,40.756,4.431,4.431,225.520,230.736,196.823
0.704,41.090,4.385,4.385,225.407,230.874,197.106
0.706,41.424,4.349,4.349,225.292,231.010,197.387
0.708,41.747,4.334,4.334,225.175,231.140,197.659
0.710,42.051,4.342,4.342,225.059,231.260,197.914
0.712,42.326,4.364,4.364,224.947,231.364,198.142
0.715,42.563,4.390,4.390,224.841,231.448,198.336
0.717,42.756,4.408,4.408,224.742,231.510,198.490
0.719,42.911,4.411,4.411,224.652,231.552,198.609
0.721,43.033,4.403,4.403,224.572,231.575,198.699
0.723,43.129,4.395,4.395,224.503,231.583,198.764
0.726,43.203,4.396,4.396,224.444,231.578,198.810
0.728,43.261,4.417,4.417,224.399,231.562,198.842
0.730,43.307,4.459,4.459,224.367,231.539,198.866
0.732,43.347,4.508,4.508,224.349,231.511,198.887
0.735,43.386,4.548,4.548,224.347,231.479,198.910
0.737,43.433,4.563,4.563,224.362,231.448,198.942
0.739,43.495,4.539,4.539,224.393,231.419,198.987
0.741,43.575,4.482,4.482,224.440,231.395,199.047
0.743,43.668,4.412,4.412,224.495,231.378,199.120
0.746,43.768,4.346,4.346,224.551,231.370,199.203
0.748,43.872,4.303,4.303,224.602,231.374,199.293
0.750,43.976,4.293,4.293,224.640,231.392,199.388
0.752,44.080,4.309,4.309,224.659,231.427,199.485
0.754,44.190,4.338,4.338,224.651,231.480,199.581
0.757,44.315,4.369,4.369,224.611,231.554,199.672
0.759,44.468,4.389,4.389,224.529,231.651,199.758
0.761,44.661,4.390,4.390,224.401,231.774,199.834
0.763,44.905,4.369,4.369,224.219,231.925,199.898
0.765,45.201,4.321,4.321,223.987,232.100,199.950
0.768,45.540,4.240,4.240,223.713,232.295,199.993
0.770,45.912,4.127,4.127,223.407,232.503,200.029
0.772,46.306,3.996,3.996,223.078,232.718,200.060
0.774,46.712,3.867,3.867,222.737,232.936,200.089
0.777,47.118,3.757,3.757,222.393,233.149,200.118
0.779,47.514,3.686,3.686,222.054,233.353,200.149
0.781,47.890,3.656,3.656,221.731,233.541,200.184
0.783,48.234,3.654,3.654,221.433,233.708,200.227
0.785,48.536,3.666,3.666,221.170,233.847,200.278
0.788,48.789,3.676,3.676,220.949,233.954,200.341
0.790,48.997,3.673,3.673,220.770,234.030,200.414
0.792,49.168,3.660,3.660,220.628,234.080,200.494
0.794,49.309,3.645,3.645,220.519,234.107,200.579
0.796,49.429,3.635,3.635,220.438,234.116,200.668
0.799,49.534,3.639,3.639,220.381,234.110,200.756
0.801,49.630,3.658,3.658,220.344,234.092,200.843
0.803,49.719,3.686,3.686,220.322,234.068,200.925
0.805,49.800,3.712,3.712,220.311,234.041,201.001
0.808,49.872,3.728,3.728,220.305,234.015,201.068
0.810,49.932,3.726,3.726,220.302,233.994,201.123
0.812,49.977,3.709,3.709,220.298,233.980,201.166
0.814,50.008,3.684,3.684,220.291,233.973,201.196
0.816,50.029,3.662,3.662,220.285,233.973,201.216
0.819,50.041,3.649,3.649,220.277,233.976,201.225
0.821,50.051,3.650,3.650,220.271,233.983,201.226
0.823,50.062,3.661,3.661,220.266,233.991,201.220
0.825,50.078,3.678,3.678,220.262,234.000,201.208
0.827,50.097,3.696,3.696,220.261,234.008,201.191
0.830,50.119,3.709,3.709,220.263,234.014,201.170
0.832,50.143,3.716,3.716,220.268,234.017,201.146
0.834,50.170,3.719,3.719,220.278,234.014,201.122
0.836,50.199,3.720,3.720,220.292,234.007,201.097
0.838,50.228,3.719,3.719,220.307,233.997,201.074
0.841,50.254,3.718,3.718,220.322,233.986,201.055
0.843,50.274,3.715,3.715,220.332,233.976,201.042
0.845,50.285,3.709,3.709,220.336,233.968,201.035
0.847,50.291,3.699,3.699,220.332,233.966,201.037
0.850,50.311,3.682,3.682,220.316,233.970,201.049
0.852,50.352,3.659,3.659,220.286,233.984,201.074
0.854,50.417,3.632,3.632,220.240,234.008,201.112
0.856,50.509,3.603,3.603,220.176,234.045,201.166
0.858,50.632,3.575,3.575,220.089,234.097,201.237
0.861,50.785,3.549,3.549,219.983,234.163,201.325
0.863,50.964,3.527,3.527,219.858,234.240,201.428
0.865,51.164,3.513,3.513,219.719,234.325,201.544
0.867,51.380,3.508,3.508,219.569,234.416,201.670
0.869,51.608,3.514,3.514,219.410,234.510,201.804
0.872,51.844,3.532,3.532,219.247,234.604,201.945
0.874,52.082,3.555,3.555,219.081,234.694,202.090
0.876,52.319,3.578,3.578,218.916,234.779,202.238
0.878,52.550,3.596,3.596,218.755,234.855,202.386
0.881,52.771,3.603,3.603,218.602,234.920,202.531
0.883,52.979,3.603,3.603,218.459,234.971,202.673
0.885,53.173,3.601,3.601,218.326,235.008,202.810
0.887,53.354,3.603,3.603,218.204,235.034,202.941
0.889,53.521,3.615,3.615,218.093,235.049,203.064
0.892,53.675,3.640,3.640,217.991,235.056,203.179
0.894,53.816,3.675,3.675,217.898,235.057,203.286
0.896,53.943,3.714,3.714,217.815,235.052,203.382
0.898,54.056,3.753,3.753,217.742,235.045,203.467
0.900,54.155,3.787,3.787,217.677,235.035,203.541
0.903,54.238,3.815,3.815,217.620,235.026,203.602
