"T","Distance","Radius","FreeRadius","X","Y","Z"
0.000,0.000,1.320,1.320,235.298,206.446,186.459
0.002,0.063,1.306,1.306,235.323,206.389,186.470
0.003,0.125,1.292,1.292,235.347,206.333,186.481
0.005,0.187,1.278,1.278,235.371,206.277,186.493
0.006,0.248,1.266,1.266,235.392,206.221,186.505
0.008,0.307,1.256,1.256,235.412,206.166,186.518
0.009,0.366,1.248,1.248,235.429,206.112,186.532
0.011,0.424,1.242,1.242,235.443,206.058,186.547
0.012,0.480,1.238,1.238,235.454,206.006,186.564
0.014,0.535,1.237,1.237,235.461,205.954,186.582
0.015,0.589,1.238,1.238,235.463,205.904,186.602
0.017,0.643,1.240,1.240,235.462,205.854,186.623
0.018,0.696,1.242,1.242,235.459,205.805,186.643
0.020,0.749,1.245,1.245,235.454,205.756,186.663
0.021,0.803,1.248,1.248,235.450,205.706,186.681
0.023,0.856,1.251,1.251,235.448,205.654,186.695
0.024,0.911,1.253,1.253,235.448,205.601,186.706
0.026,0.966,1.256,1.256,235.452,205.545,186.711
0.027,1.026,1.258,1.258,235.461,205.487,186.710
0.029,1.090,1.261,1.261,235.477,205.425,186.702
0.030,1.160,1.264,1.264,235.498,205.360,186.688
0.032,1.236,1.267,1.267,235.522,205.290,186.669
0.033,1.319,1.271,1.271,235.549,205.215,186.646
0.035,1.407,1.277,1.277,235.575,205.135,186.620
0.036,1.500,1.286,1.286,235.600,205.049,186.594
0.038,1.599,1.299,1.299,235.621,204.957,186.568
0.039,1.702,1.315,1.315,235.638,204.857,186.544
0.041,1.812,1.337,1.337,235.647,204.750,186.523
0.042,1.927,1.364,1.364,235.648,204.636,186.506
0.044,2.050,1.397,1.397,235.641,204.514,186.494
0.045,2.177,1.433,1.433,235.627,204.388,186.486
0.047,2.308,1.472,1.472,235.608,204.258,186.481
0.048,2.441,1.512,1.512,235.585,204.128,186.480
0.050,2.573,1.554,1.554,235.560,203.997,186.481
0.051,2.704,1.596,1.596,235.535,203.870,186.484
0.053,2.829,1.637,1.637,235.510,203.747,186.488
0.054,2.948,1.678,1.678,235.488,203.630,186.494
0.056,3.058,1.718,1.718,235.470,203.522,186.501
0.057,3.159,1.756,1.756,235.456,203.422,186.508
0.059,3.250,1.794,1.794,235.444,203.332,186.516
0.060,3.331,1.830,1.830,235.432,203.252,186.523
0.062,3.403,1.866,1.866,235.419,203.182,186.529
0.063,3.465,1.899,1.899,235.403,203.122,186.535
0.065,3.518,1.931,1.931,235.382,203.073,186.540
0.066,3.566,1.962,1.962,235.355,203.035,186.543
0.068,3.610,1.990,1.990,235.319,203.008,186.545
0.069,3.658,2.017,2.017,235.274,202.993,186.546
0.071,3.713,2.041,2.041,235.220,202.987,186.545
0.072,3.773,2.063,2.063,235.159,202.987,186.546
0.074,3.836,2.082,2.082,235.097,202.989,186.552
0.075,3.898,2.097,2.097,235.035,202.989,186.565
0.077,3.960,2.107,2.107,234.979,202.983,186.587
0.078,4.022,2.111,2.111,234.929,202.966,186.621
0.080,4.090,2.107,2.107,234.892,202.936,186.669
0.081,4.175,2.096,2.096,234.869,202.887,186.735
0.083,4.286,2.077,2.077,234.864,202.816,186.820
0.084,4.428,2.053,2.053,234.878,202.723,186.926
0.086,4.596,2.027,2.027,234.909,202.611,187.048
0.087,4.787,2.002,2.002,234.956,202.485,187.184
0.089,4.995,1.982,1.982,235.015,202.350,187.329
0.090,5.213,1.968,1.968,235.084,202.210,187.482
0.092,5.436,1.965,1.965,235.162,202.071,187.637
0.093,5.658,1.971,1.971,235.244,201.935,187.793
0.095,5.873,1.987,1.987,235.331,201.809,187.945
0.096,6.076,2.008,2.008,235.418,201.697,188.090
0.098,6.263,2.034,2.034,235.503,201.601,188.226
0.099,6.436,2.061,2.061,235.584,201.519,188.353
0.101,6.594,2.089,2.089,235.659,201.448,188.474
0.102,6.739,2.115,2.115,235.724,201.387,188.588
0.104,6.872,2.139,2.139,235.776,201.332,188.698
0.105,6.995,2.161,2.161,235.814,201.281,188.803
0.107,7.110,2.182,2.182,235.835,201.232,188.905
0.108,7.223,2.202,2.202,235.835,201.181,189.005
0.110,7.338,2.222,2.222,235.812,201.126,189.105
0.111,7.463,2.243,2.243,235.765,201.066,189.204
0.113,7.598,2.264,2.264,235.699,201.001,189.302
0.114,7.742,2.285,2.285,235.618,200.933,189.399
0.116,7.891,2.306,2.306,235.526,200.864,189.494
0.117,8.042,2.326,2.326,235.429,200.794,189.586
0.119,8.190,2.344,2.344,235.332,200.725,189.674
0.120,8.333,2.361,2.361,235.238,200.659,189.758
0.122,8.464,2.375,2.375,235.153,200.597,189.838
0.123,8.582,2.387,2.387,235.083,200.539,189.912
0.125,8.683,2.399,2.399,235.029,200.488,189.981
0.126,8.774,2.412,2.412,234.989,200.442,190.047
0.128,8.860,2.428,2.428,234.957,200.399,190.116
0.129,8.950,2.448,2.448,234.930,200.358,190.191
0.131,9.048,2.475,2.475,234.902,200.316,190.275
0.132,9.161,2.510,2.510,234.869,200.273,190.374
0.134,9.293,2.554,2.554,234.826,200.227,190.490
0.135,9.452,2.608,2.608,234.767,200.175,190.629
0.137,9.643,2.673,2.673,234.689,200.117,190.793
0.138,9.871,2.750,2.750,234.588,200.051,190.986
0.140,10.129,2.839,2.839,234.467,199.979,191.203
0.141,10.407,2.942,2.942,234.333,199.903,191.434
0.143,10.694,3.058,3.058,234.191,199.826,191.671
0.144,10.981,3.181,3.181,234.048,199.750,191.907
0.146,11.256,3.306,3.306,233.908,199.677,192.133
0.147,11.510,3.424,3.424,233.779,199.610,192.342
0.149,11.732,3.530,3.530,233.667,199.552,192.524
0.150,11.911,3.617,3.617,233.576,199.504,192.671
0.152,12.040,3.676,3.676,233.513,199.470,192.777
0.153,12.120,3.708,3.708,233.474,199.447,192.844
0.155,12.160,3.716,3.716,233.456,199.436,192.878
0.156,12.168,3.708,3.708,233.452,199.434,192.884
0.158,12.184,3.691,3.691,233.456,199.439,192.871
0.159,12.215,3.673,3.673,233.464,199.451,192.843
0.161,12.254,3.659,3.659,233.470,199.467,192.808
0.162,12.296,3.657,3.657,233.469,199.485,192.770
0.164,12.336,3.669,3.669,233.455,199.505,192.738
0.165,12.379,3.690,3.690,233.423,199.524,192.716
0.167,12.433,3.718,3.718,233.374,199.542,192.705
0.168,12.497,3.749,3.749,233.312,199.559,192.704
0.170,12.570,3.779,3.779,233.241,199.574,192.711
0.171,12.649,3.804,3.804,233.164,199.589,192.724
0.173,12.729,3.822,3.822,233.086,199.601,192.741
0.174,12.807,3.833,3.833,233.012,199.612,192.759
0.176,12.879,3.838,3.838,232.943,199.622,192.778
0.177,12.939,3.840,3.840,232.886,199.629,192.794
0.179,12.984,3.839,3.839,232.843,199.635,192.807
0.180,13.013,3.837,3.837,232.815,199.639,192.816
0.182,13.030,3.836,3.836,232.800,199.642,192.821
0.183,13.036,3.838,3.838,232.794,199.643,192.822
0.185,13.038,3.841,3.841,232.795,199.643,192.821
0.186,13.045,3.845,3.845,232.801,199.642,192.818
0.188,13.054,3.849,3.849,232.810,199.641,192.814
0.189,13.063,3.851,3.851,232.817,199.639,192.809
0.191,13.071,3.852,3.852,232.822,199.637,192.804
0.192,13.076,3.850,3.850,232.821,199.636,192.799
0.194,13.085,3.844,3.844,232.813,199.634,192.795
0.195,13.101,3.836,3.836,232.798,199.630,192.791
0.197,13.125,3.826,3.826,232.775,199.623,192.786
0.198,13.158,3.814,3.814,232.745,199.612,192.782
0.200,13.200,3.802,3.802,232.707,199.595,192.776
0.202,13.252,3.788,3.788,232.661,199.570,192.770
0.203,13.316,3.775,3.775,232.607,199.537,192.762
0.205,13.393,3.762,3.762,232.545,199.494,192.753
0.206,13.483,3.747,3.747,232.474,199.439,192.742
0.208,13.588,3.731,3.731,232.394,199.372,192.728
0.209,13.706,3.712,3.712,232.305,199.296,192.711
0.211,13.838,3.689,3.689,232.207,199.210,192.692
0.212,13.982,3.663,3.663,232.099,199.118,192.668
0.214,14.137,3.632,3.632,231.981,199.021,192.641
0.215,14.303,3.598,3.598,231.854,198.920,192.609
0.217,14.479,3.565,3.565,231.715,198.817,192.572
0.218,14.665,3.535,3.535,231.566,198.714,192.529
0.220,14.861,3.511,3.511,231.406,198.612,192.481
0.221,15.065,3.495,3.495,231.236,198.513,192.427
0.223,15.275,3.491,3.491,231.060,198.416,192.368
0.224,15.485,3.499,3.499,230.883,198.320,192.306
0.226,15.693,3.515,3.515,230.709,198.226,192.242
0.227,15.895,3.537,3.537,230.542,198.134,192.177
0.229,16.086,3.560,3.560,230.386,198.043,192.112
0.230,16.264,3.582,3.582,230.247,197.952,192.049
0.232,16.425,3.598,3.598,230.128,197.863,191.989
0.233,16.567,3.605,3.605,230.033,197.773,191.933
0.235,16.690,3.602,3.602,229.966,197.684,191.882
0.236,16.798,3.591,3.591,229.922,197.596,191.836
0.238,16.896,3.574,3.574,229.899,197.510,191.795
0.239,16.986,3.552,3.552,229.892,197.428,191.759
0.241,17.069,3.528,3.528,229.897,197.351,191.727
0.242,17.147,3.503,3.503,229.911,197.279,191.700
0.244,17.218,3.478,3.478,229.929,197.215,191.677
0.245,17.281,3.456,3.456,229.949,197.158,191.659
0.247,17.333,3.435,3.435,229.964,197.111,191.645
0.248,17.373,3.417,3.417,229.974,197.073,191.634
0.250,17.403,3.401,3.401,229.976,197.043,191.628
0.251,17.427,3.387,3.387,229.971,197.020,191.626
0.253,17.450,3.376,3.376,229.958,197.001,191.628
0.254,17.477,3.367,3.367,229.938,196.984,191.634
0.256,17.511,3.361,3.361,229.910,196.967,191.644
0.257,17.555,3.356,3.356,229.873,196.949,191.659
0.259,17.608,3.353,3.353,229.829,196.927,191.678
0.260,17.672,3.350,3.350,229.776,196.899,191.702
0.262,17.748,3.347,3.347,229.715,196.864,191.730
0.263,17.833,3.343,3.343,229.648,196.822,191.762
0.265,17.926,3.338,3.338,229.576,196.774,191.796
0.266,18.024,3.332,3.332,229.501,196.723,191.833
0.268,18.124,3.324,3.324,229.426,196.668,191.871
0.269,18.224,3.314,3.314,229.353,196.612,191.908
0.271,18.322,3.302,3.302,229.283,196.555,191.945
0.272,18.414,3.288,3.288,229.219,196.499,191.981
0.274,18.498,3.271,3.271,229.163,196.445,192.014
0.275,18.573,3.251,3.251,229.117,196.394,192.043
0.277,18.640,3.230,3.230,229.079,196.346,192.071
0.278,18.699,3.209,3.209,229.049,196.302,192.096
0.280,18.754,3.187,3.187,229.024,196.260,192.122
0.281,18.807,3.165,3.165,229.003,196.220,192.148
0.283,18.858,3.146,3.146,228.984,196.182,192.177
0.284,18.910,3.128,3.128,228.965,196.146,192.210
0.286,18.964,3.112,3.112,228.945,196.111,192.247
0.287,19.024,3.096,3.096,228.921,196.078,192.289
0.289,19.090,3.081,3.081,228.893,196.045,192.339
0.290,19.161,3.066,3.066,228.861,196.012,192.394
0.292,19.236,3.050,3.050,228.827,195.977,192.451
0.293,19.311,3.032,3.032,228.792,195.940,192.506
0.295,19.384,3.012,3.012,228.760,195.899,192.557
0.296,19.453,2.991,2.991,228.731,195.853,192.600
0.298,19.518,2.971,2.971,228.709,195.800,192.631
0.299,19.582,2.952,2.952,228.694,195.741,192.648
0.301,19.651,2.936,2.936,228.690,195.672,192.648
0.302,19.732,2.924,2.924,228.697,195.594,192.626
0.304,19.831,2.916,2.916,228.713,195.505,192.584
0.305,19.949,2.913,2.913,228.735,195.406,192.526
0.307,20.082,2.909,2.909,228.757,195.296,192.455
0.308,20.229,2.902,2.902,228.774,195.174,192.374
0.310,20.388,2.888,2.888,228.782,195.041,192.287
0.311,20.558,2.863,2.863,228.774,194.897,192.198
0.313,20.739,2.823,2.823,228.748,194.740,192.111
0.314,20.934,2.766,2.766,228.697,194.571,192.028
0.316,21.145,2.694,2.694,228.616,194.390,191.954
0.317,21.375,2.613,2.613,228.507,194.199,191.889
0.319,21.621,2.528,2.528,228.375,193.999,191.833
0.320,21.879,2.445,2.445,228.225,193.795,191.784
0.322,22.143,2.368,2.368,228.063,193.591,191.740
0.323,22.409,2.304,2.304,227.894,193.389,191.701
0.325,22.671,2.256,2.256,227.725,193.192,191.666
0.326,22.922,2.225,2.225,227.562,193.004,191.632
0.328,23.157,2.206,2.206,227.409,192.829,191.599
0.329,23.369,2.200,2.200,227.273,192.670,191.565
0.331,23.557,2.202,2.202,227.156,192.528,191.529
0.332,23.721,2.213,2.213,227.056,192.404,191.491
0.334,23.863,2.229,2.229,226.971,192.297,191.451
0.335,23.985,2.249,2.249,226.897,192.209,191.407
0.337,24.091,2.270,2.270,226.834,192.139,191.360
0.338,24.183,2.291,2.291,226.778,192.087,191.310
0.340,24.265,2.310,2.310,226.728,192.053,191.255
0.341,24.343,2.323,2.323,226.680,192.037,191.195
0.343,24.423,2.331,2.331,226.632,192.039,191.130
0.344,24.511,2.329,2.329,226.583,192.059,191.060
0.346,24.608,2.318,2.318,226.534,192.090,190.983
0.347,24.712,2.300,2.300,226.486,192.128,190.899
0.349,24.823,2.273,2.273,226.438,192.168,190.807
0.350,24.940,2.241,2.241,226.392,192.205,190.706
0.352,25.062,2.202,2.202,226.349,192.234,190.596
0.353,25.190,2.158,2.158,226.309,192.250,190.475
0.355,25.326,2.111,2.111,226.274,192.248,190.343
0.356,25.475,2.062,2.062,226.243,192.223,190.200
0.358,25.640,2.014,2.014,226.217,192.171,190.045
0.359,25.823,1.972,1.972,226.194,192.097,189.880
0.361,26.020,1.938,1.938,226.172,192.004,189.707
0.362,26.230,1.915,1.915,226.147,191.895,189.529
0.364,26.449,1.907,1.907,226.119,191.775,189.349
0.365,26.673,1.914,1.914,226.084,191.648,189.167
0.367,26.900,1.933,1.933,226.040,191.516,188.988
0.368,27.126,1.961,1.961,225.984,191.385,188.812
0.370,27.349,1.993,1.993,225.915,191.258,188.643
0.371,27.567,2.026,2.026,225.831,191.138,188.482
0.373,27.777,2.056,2.056,225.737,191.025,188.331
0.374,27.976,2.078,2.078,225.637,190.922,188.194
0.376,28.160,2.092,2.092,225.538,190.827,188.072
0.377,28.326,2.100,2.100,225.443,190.741,187.966
0.379,28.468,2.102,2.102,225.359,190.665,187.880
0.380,28.584,2.101,2.101,225.290,190.598,187.815
0.382,28.668,2.098,2.098,225.242,190.543,187.773
0.383,28.721,2.095,2.095,225.220,190.498,187.757
0.385,28.757,2.094,2.094,225.228,190.464,187.766
0.386,28.804,2.094,2.094,225.257,190.440,187.795
0.388,28.862,2.094,2.094,225.297,190.426,187.834
0.389,28.919,2.093,2.093,225.340,190.421,187.872
0.391,28.964,2.090,2.090,225.373,190.424,187.902
0.392,28.984,2.084,2.084,225.387,190.433,187.913
0.394,29.012,2.073,2.073,225.371,190.449,187.896
0.395,29.092,2.057,2.057,225.316,190.471,187.843
0.397,29.240,2.040,2.040,225.211,190.497,187.742
0.398,29.466,2.024,2.024,225.047,190.526,187.589
0.400,29.762,2.013,2.013,224.830,190.556,187.390
0.402,30.109,2.011,2.011,224.569,190.582,187.163
0.403,30.489,2.021,2.021,224.276,190.600,186.922
0.405,30.884,2.046,2.046,223.961,190.606,186.683
0.406,31.278,2.087,2.087,223.634,190.597,186.463
0.408,31.657,2.139,2.139,223.306,190.569,186.276
0.409,32.008,2.196,2.196,222.987,190.517,186.138
0.411,32.326,2.253,2.253,222.689,190.437,186.065
0.412,32.617,2.303,2.303,222.419,190.327,186.071
0.414,32.903,2.341,2.341,222.182,190.190,186.151
0.415,33.200,2.363,2.363,221.973,190.033,186.292
0.417,33.511,2.366,2.366,221.790,189.863,186.479
0.418,33.832,2.355,2.355,221.631,189.690,186.698
0.420,34.155,2.333,2.333,221.492,189.520,186.934
0.421,34.467,2.302,2.302,221.372,189.360,187.173
0.423,34.754,2.265,2.265,221.267,189.219,187.401
0.424,35.005,2.226,2.226,221.176,189.103,187.603
0.426,35.205,2.187,2.187,221.094,189.021,187.766
0.427,35.353,2.150,2.150,221.023,188.972,187.887
0.429,35.458,2.117,2.117,220.961,188.952,187.969
0.430,35.528,2.088,2.088,220.911,188.955,188.018
0.432,35.578,2.064,2.064,220.872,188.978,188.040
0.433,35.623,2.046,2.046,220.846,189.015,188.037
0.435,35.676,2.037,2.037,220.832,189.061,188.016
0.436,35.737,2.035,2.035,220.833,189.112,187.982
0.438,35.805,2.039,2.039,220.848,189.162,187.938
0.439,35.877,2.046,2.046,220.877,189.207,187.891
0.441,35.949,2.054,2.054,220.918,189.244,187.844
0.442,36.015,2.059,2.059,220.963,189.272,187.804
0.444,36.068,2.060,2.060,221.003,189.291,187.777
0.445,36.099,2.053,2.053,221.030,189.301,187.767
0.447,36.114,2.038,2.038,221.038,189.301,187.780
0.448,36.162,2.014,2.014,221.016,189.290,187.823
0.450,36.261,1.983,1.983,220.959,189.268,187.900
0.451,36.420,1.944,1.944,220.857,189.235,188.017
0.453,36.648,1.897,1.897,220.702,189.190,188.179
0.454,36.945,1.844,1.844,220.496,189.133,188.385
0.456,37.295,1.784,1.784,220.250,189.069,188.626
0.457,37.681,1.720,1.720,219.976,189.000,188.889
0.459,38.087,1.654,1.654,219.688,188.929,189.164
0.460,38.494,1.590,1.590,219.396,188.860,189.441
0.462,38.887,1.531,1.531,219.114,188.796,189.707
0.463,39.249,1.479,1.479,218.855,188.740,189.953
0.465,39.563,1.437,1.437,218.630,188.695,190.167
0.466,39.811,1.408,1.408,218.453,188.665,190.339
0.468,39.989,1.391,1.391,218.327,188.650,190.463
0.469,40.108,1.382,1.382,218.242,188.651,190.547
0.471,40.185,1.379,1.379,218.186,188.664,190.598
0.472,40.237,1.382,1.382,218.149,188.687,190.625
0.474,40.284,1.386,1.386,218.117,188.720,190.636
0.475,40.340,1.390,1.390,218.078,188.761,190.638
0.477,40.412,1.394,1.394,218.023,188.807,190.639
0.478,40.512,1.402,1.402,217.937,188.856,190.648
0.480,40.651,1.416,1.416,217.810,188.908,190.672
0.481,40.838,1.440,1.440,217.636,188.960,190.716
0.483,41.066,1.478,1.478,217.422,189.012,190.779
0.484,41.325,1.534,1.534,217.181,189.062,190.855
0.486,41.603,1.611,1.611,216.921,189.110,190.943
0.487,41.890,1.707,1.707,216.654,189.156,191.038
0.489,42.175,1.815,1.815,216.391,189.197,191.138
0.490,42.446,1.928,1.928,216.141,189.234,191.237
0.492,42.693,2.040,2.040,215.916,189.265,191.334
0.493,42.905,2.143,2.143,215.726,189.290,191.425
0.495,43.075,2.232,2.232,215.578,189.308,191.507
0.496,43.209,2.300,2.300,215.469,189.319,191.583
0.498,43.316,2.350,2.350,215.392,189.324,191.658
0.499,43.408,2.389,2.389,215.343,189.323,191.735
0.501,43.497,2.422,2.422,215.313,189.316,191.819
0.502,43.592,2.455,2.455,215.298,189.304,191.912
0.504,43.702,2.495,2.495,215.292,189.288,192.020
0.505,43.829,2.548,2.548,215.288,189.267,192.146
0.507,43.980,2.616,2.616,215.280,189.241,192.295
0.508,44.156,2.696,2.696,215.264,189.213,192.467
0.510,44.351,2.785,2.785,215.240,189.181,192.659
0.511,44.560,2.877,2.877,215.210,189.149,192.863
0.513,44.774,2.968,2.968,215.176,189.117,193.071
0.514,44.985,3.054,3.054,215.140,189.086,193.277
0.516,45.185,3.129,3.129,215.105,189.058,193.473
0.517,45.368,3.193,3.193,215.072,189.034,193.651
0.519,45.525,3.245,3.245,215.043,189.016,193.804
0.520,45.649,3.288,3.288,215.021,189.004,193.925
0.522,45.734,3.322,3.322,215.007,189.000,194.009
0.523,45.782,3.348,3.348,215.001,189.003,194.057
0.525,45.803,3.367,3.367,215.000,189.009,194.076
0.526,45.812,3.381,3.381,215.004,189.018,194.075
0.528,45.832,3.391,3.391,215.011,189.025,194.058
0.529,45.859,3.398,3.398,215.019,189.029,194.032
0.531,45.887,3.403,3.403,215.026,189.028,194.005
0.532,45.910,3.408,3.408,215.031,189.020,193.984
0.534,45.932,3.414,3.414,215.032,189.001,193.974
0.535,45.964,3.422,3.422,215.028,188.970,193.982
0.537,46.015,3.433,3.433,215.017,188.928,194.007
0.538,46.082,3.446,3.446,215.002,188.875,194.047
0.540,46.164,3.461,3.461,214.981,188.814,194.097
0.541,46.257,3.477,3.477,214.955,188.746,194.155
0.543,46.356,3.492,3.492,214.924,188.674,194.216
0.544,46.460,3.506,3.506,214.889,188.599,194.277
0.546,46.563,3.517,3.517,214.850,188.522,194.335
0.547,46.665,3.526,3.526,214.806,188.446,194.386
0.549,46.761,3.532,3.532,214.759,188.371,194.426
0.550,46.853,3.537,3.537,214.710,188.300,194.455
0.552,46.939,3.542,3.542,214.659,188.233,194.475
0.553,47.021,3.546,3.546,214.608,188.170,194.487
0.555,47.097,3.551,3.551,214.559,188.113,194.493
0.556,47.166,3.558,3.558,214.513,188.061,194.493
0.558,47.227,3.566,3.566,214.471,188.016,194.491
0.559,47.280,3.576,3.576,214.436,187.978,194.487
0.561,47.321,3.586,3.586,214.407,187.948,194.483
0.562,47.350,3.596,3.596,214.388,187.926,194.481
0.564,47.368,3.606,3.606,214.377,187.912,194.480
0.565,47.376,3.615,3.615,214.373,187.905,194.480
0.567,47.378,3.623,3.623,214.373,187.903,194.481
0.568,47.382,3.629,3.629,214.376,187.905,194.481
0.570,47.387,3.633,3.633,214.379,187.909,194.480
0.571,47.393,3.634,3.634,214.381,187.914,194.478
0.573,47.399,3.631,3.631,214.380,187.918,194.473
0.574,47.410,3.624,3.624,214.373,187.920,194.465
0.576,47.429,3.613,3.613,214.359,187.919,194.453
0.577,47.456,3.596,3.596,214.337,187.912,194.437
0.579,47.491,3.577,3.577,214.310,187.899,194.420
0.580,47.532,3.558,3.558,214.279,187.877,194.405
0.582,47.581,3.542,3.542,214.245,187.844,194.393
0.583,47.637,3.531,3.531,214.212,187.799,194.387
0.585,47.705,3.528,3.528,214.181,187.739,194.388
0.586,47.786,3.535,3.535,214.154,187.663,194.400
0.588,47.886,3.553,3.553,214.133,187.568,194.425
0.589,48.008,3.579,3.579,214.119,187.454,194.465
0.591,48.152,3.612,3.612,214.114,187.321,194.520
0.592,48.315,3.650,3.650,214.114,187.173,194.587
0.594,48.488,3.689,3.689,214.115,187.016,194.661
0.595,48.666,3.729,3.729,214.114,186.857,194.740
0.597,48.842,3.766,3.766,214.109,186.699,194.818
0.598,49.009,3.800,3.800,214.095,186.549,194.892
0.600,49.163,3.828,3.828,214.070,186.413,194.959
0.602,49.299,3.850,3.850,214.030,186.296,195.013
0.603,49.416,3.865,3.865,213.971,186.202,195.053
0.605,49.520,3.870,3.870,213.894,186.136,195.074
0.606,49.620,3.865,3.865,213.803,186.094,195.080
0.608,49.722,3.848,3.848,213.705,186.070,195.073
0.609,49.823,3.824,3.824,213.605,186.061,195.055
0.611,49.921,3.794,3.794,213.511,186.063,195.030
0.612,50.010,3.763,3.763,213.428,186.070,194.999
0.614,50.083,3.734,3.734,213.362,186.079,194.967
