"T","Distance","Radius","FreeRadius","X","Y","Z"
0.000,0.000,1.026,1.026,216.076,186.562,192.918
0.002,0.118,1.087,1.087,216.110,186.465,192.860
0.003,0.235,1.148,1.148,216.144,186.369,192.802
0.005,0.352,1.212,1.212,216.178,186.274,192.743
0.006,0.468,1.280,1.280,216.214,186.181,192.684
0.008,0.583,1.352,1.352,216.252,186.091,192.624
0.009,0.696,1.431,1.431,216.291,186.003,192.563
0.011,0.809,1.516,1.516,216.333,185.919,192.502
0.012,0.920,1.608,1.608,216.378,185.839,192.438
0.014,1.031,1.703,1.703,216.425,185.763,192.373
0.016,1.140,1.797,1.797,216.477,185.693,192.307
0.017,1.249,1.887,1.887,216.532,185.630,192.238
0.019,1.357,1.970,1.970,216.591,185.572,192.168
0.020,1.465,2.042,2.042,216.653,185.521,192.096
0.022,1.573,2.102,2.102,216.718,185.476,192.022
0.023,1.681,2.150,2.150,216.784,185.437,191.946
0.025,1.787,2.189,2.189,216.850,185.404,191.870
0.026,1.893,2.222,2.222,216.916,185.377,191.792
0.028,1.997,2.250,2.250,216.981,185.356,191.713
0.030,2.099,2.277,2.277,217.044,185.341,191.634
0.031,2.200,2.304,2.304,217.104,185.332,191.554
0.033,2.298,2.332,2.332,217.160,185.328,191.473
0.034,2.394,2.362,2.362,217.212,185.330,191.393
0.036,2.487,2.394,2.394,217.259,185.336,191.312
0.037,2.578,2.426,2.426,217.301,185.344,191.233
0.039,2.664,2.460,2.460,217.340,185.351,191.156
0.040,2.747,2.495,2.495,217.376,185.356,191.082
0.042,2.824,2.531,2.531,217.409,185.355,191.012
0.044,2.897,2.567,2.568,217.439,185.346,190.946
0.045,2.966,2.603,2.604,217.468,185.327,190.886
0.047,3.033,2.636,2.640,217.495,185.296,190.833
0.048,3.104,2.667,2.674,217.521,185.250,190.787
0.050,3.182,2.695,2.707,217.547,185.186,190.749
0.051,3.273,2.718,2.737,217.572,185.104,190.720
0.053,3.378,2.738,2.764,217.598,185.005,190.699
0.054,3.494,2.755,2.790,217.623,184.892,190.685
0.056,3.619,2.772,2.815,217.647,184.770,190.678
0.058,3.749,2.791,2.840,217.671,184.642,190.675
0.059,3.881,2.812,2.866,217.694,184.511,190.676
0.061,4.012,2.839,2.892,217.715,184.383,190.680
0.062,4.137,2.871,2.921,217.735,184.259,190.685
0.064,4.253,2.908,2.950,217.753,184.145,190.690
0.065,4.356,2.947,2.979,217.770,184.043,190.695
0.067,4.443,2.985,3.007,217.784,183.957,190.698
0.068,4.512,3.020,3.032,217.796,183.890,190.698
0.070,4.565,3.051,3.054,217.806,183.838,190.697
0.072,4.605,3.074,3.071,217.814,183.798,190.695
0.073,4.637,3.090,3.084,217.820,183.766,190.694
0.075,4.664,3.100,3.094,217.824,183.740,190.694
0.076,4.690,3.107,3.101,217.827,183.715,190.698
0.078,4.718,3.111,3.107,217.827,183.688,190.706
0.079,4.753,3.115,3.113,217.826,183.655,190.718
0.081,4.799,3.121,3.121,217.824,183.613,190.737
0.082,4.859,3.129,3.130,217.821,183.559,190.763
0.084,4.938,3.141,3.143,217.816,183.488,190.798
0.086,5.035,3.157,3.158,217.810,183.401,190.841
0.087,5.147,3.176,3.178,217.804,183.301,190.890
0.089,5.270,3.200,3.201,217.797,183.191,190.945
0.090,5.399,3.228,3.228,217.789,183.075,191.002
0.092,5.531,3.261,3.261,217.781,182.957,191.060
0.093,5.662,3.297,3.297,217.774,182.840,191.117
0.095,5.788,3.336,3.335,217.766,182.727,191.172
0.096,5.904,3.374,3.374,217.760,182.622,191.222
0.098,6.007,3.411,3.411,217.753,182.529,191.266
0.100,6.093,3.444,3.444,217.748,182.452,191.302
0.101,6.158,3.471,3.471,217.744,182.392,191.329
0.103,6.203,3.491,3.491,217.741,182.351,191.345
0.104,6.230,3.505,3.505,217.739,182.325,191.355
0.106,6.243,3.512,3.513,217.739,182.313,191.358
0.107,6.246,3.515,3.515,217.740,182.310,191.357
0.109,6.253,3.512,3.512,217.743,182.316,191.352
0.110,6.266,3.505,3.505,217.747,182.326,191.347
0.112,6.281,3.495,3.495,217.752,182.340,191.343
0.114,6.297,3.483,3.483,217.760,182.354,191.340
0.115,6.311,3.469,3.469,217.768,182.365,191.341
0.117,6.325,3.456,3.456,217.779,182.371,191.348
0.118,6.343,3.443,3.443,217.791,182.371,191.361
0.120,6.367,3.434,3.434,217.804,182.364,191.379
0.121,6.395,3.428,3.428,217.817,182.352,191.402
0.123,6.427,3.427,3.427,217.828,182.337,191.427
0.124,6.459,3.428,3.428,217.837,182.318,191.452
0.126,6.491,3.432,3.432,217.842,182.299,191.477
0.128,6.521,3.435,3.435,217.843,182.279,191.499
0.129,6.547,3.437,3.437,217.838,182.260,191.517
0.131,6.571,3.435,3.435,217.826,182.244,191.529
0.132,6.594,3.429,3.429,217.807,182.231,191.534
0.134,6.624,3.418,3.418,217.779,182.223,191.530
0.135,6.662,3.404,3.404,217.742,182.220,191.518
0.137,6.708,3.390,3.390,217.700,182.222,191.502
0.138,6.755,3.378,3.378,217.655,182.226,191.486
0.140,6.801,3.369,3.369,217.611,182.232,191.475
0.142,6.843,3.366,3.366,217.570,182.238,191.475
0.143,6.880,3.368,3.368,217.535,182.244,191.489
0.145,6.922,3.373,3.373,217.511,182.248,191.523
0.146,6.981,3.374,3.374,217.499,182.249,191.581
0.148,7.068,3.367,3.367,217.502,182.246,191.667
0.149,7.191,3.345,3.345,217.525,182.237,191.787
0.151,7.356,3.305,3.305,217.569,182.222,191.945
0.152,7.561,3.241,3.241,217.634,182.200,192.139
0.154,7.799,3.155,3.155,217.715,182.172,192.361
0.156,8.060,3.055,3.055,217.810,182.140,192.602
0.157,8.336,2.949,2.949,217.914,182.104,192.855
0.159,8.617,2.845,2.845,218.023,182.065,193.111
0.160,8.895,2.752,2.752,218.132,182.025,193.363
0.162,9.160,2.677,2.677,218.238,181.984,193.603
0.163,9.403,2.626,2.626,218.337,181.943,193.822
0.165,9.616,2.596,2.596,218.424,181.904,194.012
0.166,9.789,2.581,2.581,218.497,181.867,194.165
0.168,9.916,2.578,2.578,218.550,181.833,194.274
0.170,10.001,2.581,2.581,218.586,181.803,194.345
0.171,10.054,2.586,2.586,218.606,181.775,194.386
0.173,10.085,2.587,2.587,218.612,181.751,194.405
0.174,10.108,2.584,2.584,218.608,181.730,194.411
0.176,10.131,2.577,2.577,218.595,181.711,194.413
0.177,10.156,2.566,2.566,218.576,181.695,194.419
0.179,10.189,2.551,2.551,218.554,181.680,194.439
0.180,10.239,2.533,2.533,218.530,181.668,194.481
0.182,10.316,2.513,2.513,218.508,181.658,194.553
0.184,10.429,2.491,2.491,218.489,181.650,194.665
0.185,10.586,2.469,2.469,218.475,181.643,194.821
0.187,10.780,2.449,2.449,218.466,181.638,195.015
0.188,11.003,2.432,2.432,218.461,181.635,195.238
0.190,11.246,2.420,2.420,218.460,181.632,195.481
0.191,11.501,2.416,2.416,218.462,181.632,195.736
0.193,11.759,2.419,2.419,218.467,181.633,195.994
0.194,12.012,2.431,2.431,218.473,181.635,196.247
0.196,12.251,2.447,2.447,218.479,181.639,196.486
0.198,12.468,2.466,2.466,218.486,181.644,196.702
0.199,12.654,2.483,2.483,218.493,181.651,196.888
0.201,12.800,2.497,2.497,218.499,181.659,197.034
0.202,12.905,2.504,2.504,218.503,181.669,197.138
0.204,12.973,2.503,2.503,218.507,181.679,197.205
0.205,13.010,2.496,2.496,218.509,181.689,197.241
0.207,13.023,2.485,2.485,218.510,181.699,197.250
0.208,13.038,2.474,2.474,218.510,181.707,197.239
0.210,13.065,2.464,2.464,218.509,181.714,197.212
0.212,13.102,2.458,2.458,218.508,181.719,197.175
0.213,13.143,2.459,2.459,218.507,181.722,197.135
0.215,13.183,2.466,2.466,218.505,181.721,197.095
0.216,13.216,2.478,2.478,218.503,181.717,197.062
0.218,13.239,2.492,2.492,218.500,181.709,197.041
0.219,13.253,2.506,2.506,218.499,181.697,197.033
0.221,13.267,2.518,2.518,218.501,181.684,197.039
0.222,13.290,2.525,2.525,218.508,181.673,197.057
0.224,13.325,2.526,2.526,218.522,181.664,197.089
0.226,13.375,2.519,2.519,218.544,181.660,197.133
0.227,13.440,2.504,2.504,218.577,181.663,197.190
0.229,13.523,2.477,2.477,218.622,181.675,197.258
0.230,13.626,2.440,2.440,218.681,181.698,197.339
0.232,13.749,2.389,2.389,218.756,181.734,197.430
0.233,13.897,2.325,2.325,218.849,181.784,197.534
0.235,14.070,2.249,2.249,218.961,181.850,197.647
0.236,14.265,2.168,2.168,219.089,181.930,197.770
0.238,14.476,2.086,2.086,219.231,182.021,197.898
0.240,14.698,2.010,2.010,219.383,182.118,198.029
0.241,14.927,1.944,1.944,219.541,182.218,198.160
0.243,15.156,1.894,1.894,219.702,182.318,198.289
0.244,15.382,1.864,1.864,219.863,182.414,198.413
0.246,15.597,1.851,1.851,220.021,182.504,198.529
0.247,15.798,1.851,1.851,220.172,182.583,198.635
0.249,15.979,1.861,1.861,220.314,182.648,198.728
0.250,16.136,1.877,1.877,220.442,182.696,198.804
0.252,16.267,1.897,1.897,220.555,182.725,198.864
0.253,16.377,1.916,1.916,220.654,182.738,198.910
0.255,16.472,1.933,1.933,220.742,182.735,198.946
0.257,16.556,1.946,1.946,220.820,182.721,198.973
0.258,16.633,1.956,1.956,220.889,182.696,198.997
0.260,16.706,1.960,1.960,220.952,182.665,199.019
0.261,16.779,1.959,1.959,221.009,182.628,199.043
0.263,16.853,1.950,1.950,221.064,182.588,199.072
0.264,16.929,1.935,1.935,221.118,182.547,199.109
0.266,17.012,1.916,1.916,221.171,182.509,199.158
0.267,17.103,1.894,1.894,221.227,182.475,199.221
0.269,17.204,1.872,1.872,221.286,182.446,199.299
0.271,17.315,1.853,1.853,221.347,182.423,199.389
0.272,17.435,1.839,1.839,221.409,182.406,199.490
0.274,17.561,1.832,1.832,221.473,182.395,199.598
0.275,17.691,1.832,1.832,221.537,182.391,199.711
0.277,17.825,1.838,1.838,221.602,182.393,199.828
0.278,17.959,1.845,1.845,221.666,182.403,199.945
0.280,18.092,1.854,1.854,221.730,182.420,200.060
0.281,18.222,1.860,1.860,221.792,182.445,200.172
0.283,18.348,1.862,1.862,221.853,182.478,200.277
0.285,18.467,1.859,1.859,221.911,182.519,200.373
0.286,18.581,1.852,1.852,221.967,182.566,200.461
0.288,18.688,1.841,1.841,222.020,182.615,200.539
0.289,18.786,1.828,1.828,222.071,182.665,200.607
0.291,18.875,1.815,1.815,222.118,182.711,200.666
0.292,18.953,1.803,1.803,222.163,182.751,200.716
0.294,19.018,1.792,1.792,222.204,182.782,200.756
0.295,19.070,1.784,1.784,222.242,182.801,200.786
0.297,19.110,1.779,1.779,222.276,182.805,200.807
0.299,19.145,1.776,1.776,222.306,182.791,200.818
0.300,19.189,1.775,1.775,222.332,182.755,200.819
0.302,19.252,1.776,1.776,222.355,182.697,200.810
0.303,19.336,1.780,1.780,222.377,182.619,200.793
0.305,19.437,1.785,1.785,222.401,182.524,200.768
0.306,19.554,1.790,1.790,222.429,182.415,200.737
0.308,19.683,1.795,1.795,222.464,182.295,200.700
0.309,19.824,1.798,1.798,222.509,182.168,200.660
0.311,19.973,1.798,1.798,222.566,182.037,200.617
0.313,20.130,1.794,1.794,222.638,181.906,200.572
0.314,20.294,1.785,1.785,222.729,181.776,200.526
0.316,20.466,1.772,1.772,222.840,181.653,200.481
0.317,20.648,1.759,1.759,222.974,181.538,200.437
0.319,20.841,1.750,1.750,223.131,181.434,200.396
0.320,21.042,1.749,1.749,223.305,181.341,200.358
0.322,21.249,1.758,1.758,223.491,181.258,200.322
0.323,21.457,1.782,1.782,223.684,181.185,200.288
0.325,21.663,1.822,1.822,223.877,181.123,200.257
0.327,21.861,1.874,1.874,224.066,181.070,200.229
0.328,22.046,1.932,1.932,224.244,181.027,200.203
0.330,22.214,1.991,1.991,224.407,180.994,200.180
0.331,22.359,2.046,2.046,224.549,180.970,200.159
0.333,22.477,2.092,2.092,224.664,180.956,200.142
0.334,22.561,2.123,2.123,224.747,180.950,200.127
0.336,22.616,2.141,2.141,224.800,180.952,200.114
0.337,22.645,2.147,2.147,224.827,180.960,200.105
0.339,22.659,2.143,2.143,224.832,180.971,200.098
0.341,22.675,2.134,2.134,224.822,180.982,200.094
0.342,22.699,2.122,2.122,224.801,180.993,200.092
0.344,22.728,2.108,2.108,224.773,181.000,200.094
0.345,22.757,2.097,2.097,224.744,181.002,200.098
0.347,22.785,2.086,2.086,224.718,180.996,200.105
0.348,22.811,2.076,2.076,224.700,180.980,200.115
0.350,22.842,2.067,2.067,224.696,180.951,200.127
0.351,22.888,2.057,2.057,224.709,180.910,200.142
0.353,22.951,2.048,2.048,224.737,180.856,200.160
0.355,23.030,2.037,2.037,224.778,180.791,200.178
0.356,23.121,2.026,2.026,224.830,180.718,200.195
0.358,23.222,2.013,2.013,224.890,180.639,200.212
0.359,23.329,1.999,1.999,224.954,180.555,200.228
0.361,23.438,1.982,1.982,225.020,180.469,200.240
0.362,23.547,1.963,1.963,225.086,180.382,200.248
0.364,23.653,1.941,1.941,225.148,180.297,200.252
0.365,23.752,1.916,1.916,225.205,180.216,200.250
0.367,23.841,1.889,1.889,225.252,180.140,200.241
0.369,23.922,1.863,1.863,225.291,180.071,200.225
0.370,23.997,1.838,1.838,225.324,180.007,200.204
0.372,24.071,1.815,1.815,225.355,179.945,200.179
0.373,24.146,1.797,1.797,225.390,179.884,200.152
0.375,24.227,1.785,1.785,225.433,179.822,200.123
0.376,24.316,1.779,1.779,225.487,179.756,200.096
0.378,24.419,1.779,1.779,225.558,179.686,200.071
0.379,24.541,1.785,1.785,225.649,179.608,200.050
0.381,24.687,1.799,1.799,225.765,179.520,200.034
0.383,24.863,1.819,1.819,225.910,179.421,200.025
0.384,25.074,1.846,1.846,226.089,179.310,200.025
0.386,25.318,1.881,1.881,226.299,179.185,200.033
0.387,25.587,1.921,1.921,226.532,179.051,200.048
0.389,25.874,1.965,1.966,226.781,178.912,200.068
0.390,26.168,2.013,2.014,227.038,178.769,200.092
0.392,26.462,2.064,2.064,227.294,178.627,200.116
0.393,26.746,2.115,2.115,227.541,178.489,200.141
0.395,27.013,2.167,2.166,227.773,178.359,200.164
0.397,27.253,2.217,2.216,227.979,178.238,200.184
0.398,27.458,2.266,2.264,228.154,178.132,200.198
0.400,27.619,2.310,2.309,228.287,178.042,200.206
0.401,27.730,2.351,2.349,228.374,177.972,200.205
0.403,27.797,2.385,2.384,228.418,177.922,200.197
0.404,27.833,2.413,2.413,228.427,177.889,200.185
0.406,27.861,2.434,2.436,228.411,177.872,200.170
0.407,27.897,2.447,2.452,228.379,177.869,200.156
0.409,27.939,2.456,2.462,228.339,177.877,200.143
0.411,27.983,2.459,2.466,228.300,177.895,200.136
0.412,28.021,2.459,2.464,228.271,177.921,200.136
0.414,28.056,2.457,2.458,228.261,177.953,200.146
0.415,28.102,2.452,2.448,228.279,177.989,200.167
0.417,28.177,2.449,2.436,228.333,178.027,200.203
0.418,28.293,2.448,2.429,228.429,178.065,200.255
0.420,28.446,2.454,2.431,228.564,178.101,200.319
0.421,28.630,2.468,2.446,228.730,178.135,200.391
0.423,28.839,2.494,2.481,228.922,178.164,200.469
0.425,29.066,2.534,2.539,229.133,178.186,200.547
0.426,29.304,2.589,2.622,229.358,178.200,200.623
0.428,29.546,2.654,2.723,229.591,178.205,200.693
0.429,29.787,2.724,2.835,229.824,178.199,200.752
0.431,30.021,2.793,2.949,230.053,178.179,200.798
0.432,30.243,2.856,3.057,230.270,178.145,200.825
0.434,30.449,2.908,3.152,230.470,178.095,200.831
0.435,30.641,2.945,3.227,230.650,178.029,200.815
0.437,30.823,2.967,3.280,230.810,177.951,200.780
0.439,30.997,2.980,3.317,230.951,177.862,200.730
0.440,31.165,2.988,3.340,231.075,177.768,200.668
0.442,31.325,2.996,3.354,231.183,177.671,200.599
0.443,31.477,3.010,3.362,231.275,177.574,200.527
0.445,31.619,3.033,3.368,231.352,177.480,200.454
0.446,31.747,3.069,3.375,231.416,177.394,200.385
0.448,31.858,3.113,3.382,231.468,177.317,200.324
0.449,31.948,3.160,3.390,231.509,177.254,200.274
0.451,32.014,3.206,3.398,231.540,177.207,200.239
0.453,32.057,3.246,3.405,231.562,177.176,200.218
0.454,32.082,3.277,3.413,231.577,177.158,200.209
0.456,32.094,3.292,3.419,231.586,177.150,200.208
0.457,32.101,3.295,3.425,231.591,177.149,200.213
0.459,32.110,3.289,3.430,231.593,177.153,200.220
0.460,32.118,3.278,3.433,231.595,177.158,200.227
0.462,32.124,3.267,3.435,231.597,177.162,200.230
0.463,32.129,3.260,3.435,231.601,177.161,200.226
0.465,32.146,3.262,3.432,231.610,177.153,200.214
0.467,32.180,3.274,3.428,231.623,177.135,200.188
0.468,32.235,3.296,3.424,231.643,177.104,200.148
0.470,32.308,3.326,3.422,231.670,177.061,200.095
0.471,32.396,3.360,3.423,231.702,177.008,200.032
0.473,32.498,3.399,3.430,231.741,176.944,199.963
0.474,32.609,3.439,3.444,231.784,176.873,199.890
0.476,32.728,3.479,3.467,231.833,176.794,199.816
0.477,32.850,3.518,3.499,231.886,176.709,199.745
0.479,32.975,3.557,3.535,231.943,176.620,199.679
0.481,33.100,3.594,3.576,232.003,176.526,199.622
0.482,33.223,3.630,3.619,232.066,176.431,199.576
0.484,33.344,3.665,3.660,232.133,176.335,199.546
0.485,33.463,3.698,3.700,232.201,176.238,199.531
0.487,33.580,3.730,3.735,232.269,176.144,199.530
0.488,33.695,3.760,3.766,232.338,176.052,199.540
0.490,33.807,3.788,3.793,232.404,175.964,199.558
0.491,33.914,3.812,3.816,232.468,175.881,199.582
0.493,34.013,3.834,3.836,232.527,175.806,199.608
0.495,34.103,3.852,3.852,232.581,175.738,199.635
0.496,34.182,3.866,3.865,232.628,175.680,199.659
0.498,34.246,3.876,3.875,232.667,175.633,199.677
0.499,34.293,3.883,3.881,232.696,175.598,199.687
0.501,34.322,3.887,3.886,232.715,175.576,199.686
0.502,34.340,3.888,3.887,232.724,175.566,199.674
0.504,34.359,3.887,3.887,232.725,175.563,199.655
0.505,34.383,3.885,3.885,232.720,175.565,199.631
0.507,34.410,3.881,3.881,232.712,175.566,199.606
0.509,34.435,3.876,3.876,232.703,175.562,199.583
0.510,34.459,3.871,3.872,232.695,175.549,199.564
0.512,34.487,3.867,3.867,232.690,175.524,199.554
0.513,34.529,3.863,3.863,232.691,175.482,199.555
0.515,34.595,3.861,3.861,232.699,175.418,199.570
0.516,34.692,3.860,3.860,232.717,175.329,199.603
0.518,34.825,3.863,3.863,232.747,175.211,199.656
0.519,34.990,3.869,3.869,232.789,175.067,199.727
0.521,35.182,3.880,3.879,232.839,174.903,199.813
0.523,35.393,3.895,3.895,232.895,174.723,199.909
0.524,35.617,3.917,3.917,232.956,174.535,200.012
0.526,35.845,3.945,3.945,233.020,174.343,200.118
0.527,36.071,3.979,3.979,233.083,174.153,200.222
0.529,36.287,4.018,4.018,233.145,173.971,200.322
0.530,36.487,4.058,4.058,233.202,173.803,200.414
0.532,36.664,4.097,4.097,233.253,173.653,200.492
0.533,36.810,4.133,4.133,233.295,173.527,200.554
0.535,36.921,4.162,4.162,233.327,173.430,200.598
0.537,37.001,4.183,4.183,233.350,173.359,200.624
0.538,37.054,4.195,4.195,233.364,173.310,200.637
0.540,37.086,4.202,4.202,233.372,173.278,200.640
0.541,37.103,4.204,4.204,233.373,173.261,200.636
0.543,37.114,4.204,4.204,233.370,173.255,200.628
0.544,37.125,4.203,4.203,233.364,173.256,200.620
0.546,37.136,4.204,4.204,233.355,173.259,200.614
0.547,37.146,4.206,4.206,233.345,173.262,200.614
0.549,37.160,4.210,4.210,233.335,173.260,200.624
0.551,37.185,4.213,4.213,233.326,173.250,200.645
0.552,37.226,4.214,4.214,233.319,173.230,200.681
0.554,37.282,4.211,4.211,233.314,173.201,200.728
0.555,37.352,4.205,4.205,233.311,173.166,200.787
0.557,37.432,4.192,4.192,233.311,173.124,200.856
0.558,37.521,4.175,4.175,233.312,173.079,200.933
0.560,37.617,4.156,4.156,233.314,173.032,201.017
0.561,37.719,4.136,4.136,233.319,172.984,201.107
0.563,37.824,4.118,4.118,233.326,172.937,201.200
0.565,37.930,4.105,4.105,233.335,172.893,201.297
0.566,38.036,4.097,4.097,233.346,172.853,201.394
0.568,38.140,4.097,4.097,233.359,172.819,201.492
0.569,38.243,4.103,4.103,233.373,172.791,201.589
0.571,38.345,4.111,4.111,233.386,172.769,201.688
0.572,38.447,4.122,4.122,233.398,172.752,201.788
0.574,38.552,4.133,4.133,233.406,172.741,201.892
0.575,38.659,4.141,4.141,233.410,172.736,201.999
0.577,38.771,4.146,4.146,233.407,172.734,202.111
0.579,38.890,4.146,4.146,233.396,172.738,202.229
0.580,39.016,4.143,4.143,233.377,172.746,202.354
0.582,39.152,4.137,4.137,233.347,172.757,202.486
0.583,39.300,4.128,4.128,233.305,172.773,202.627
0.585,39.461,4.117,4.117,233.250,172.791,202.777
0.586,39.632,4.104,4.104,233.185,172.811,202.934
0.588,39.809,4.090,4.090,233.114,172.830,203.095
0.589,39.986,4.077,4.077,233.041,172.846,203.256
0.591,40.160,4.066,4.066,232.970,172.856,203.414
0.593,40.325,4.059,4.059,232.905,172.858,203.566
0.594,40.478,4.059,4.059,232.850,172.850,203.708
0.596,40.616,4.066,4.066,232.808,172.830,203.838
0.597,40.738,4.083,4.083,232.785,172.795,203.953
0.599,40.846,4.108,4.108,232.784,172.744,204.048
0.600,40.951,4.143,4.143,232.808,172.673,204.121
0.602,41.067,4.185,4.185,232.859,172.582,204.171
0.603,41.200,4.234,4.234,232.932,172.475,204.202
0.605,41.349,4.289,4.289,233.020,172.355,204.217
0.607,41.511,4.350,4.350,233.116,172.225,204.222
0.608,41.678,4.415,4.415,233.214,172.090,204.220
0.610,41.845,4.478,4.478,233.308,171.952,204.216
0.611,42.005,4.536,4.536,233.392,171.816,204.215
0.613,42.152,4.584,4.584,233.459,171.685,204.220
0.614,42.282,4.618,4.618,233.502,171.563,204.237
0.616,42.397,4.634,4.634,233.516,171.454,204.269
0.617,42.506,4.627,4.627,233.493,171.360,204.320
0.619,42.627,4.600,4.600,233.435,171.283,204.392
0.621,42.767,4.559,4.559,233.346,171.222,204.481
0.622,42.927,4.508,4.508,233.232,171.173,204.583
0.624,43.105,4.454,4.454,233.101,171.136,204.696
0.625,43.294,4.400,4.400,232.956,171.108,204.816
0.627,43.490,4.354,4.354,232.806,171.087,204.940
0.628,43.685,4.316,4.316,232.656,171.072,205.064
0.630,43.874,4.286,4.286,232.511,171.061,205.184
0.631,44.049,4.262,4.262,232.378,171.051,205.298
0.633,44.205,4.242,4.242,232.263,171.040,205.402
0.635,44.335,4.223,4.223,232.172,171.028,205.494
