"T","Distance","Radius","FreeRadius","X","Y","Z"
0.000,0.000,1.026,1.026,216.076,186.562,192.918
0.002,0.125,1.093,1.093,216.112,186.459,192.856
0.003,0.249,1.160,1.161,216.148,186.358,192.794
0.005,0.373,1.230,1.230,216.185,186.257,192.732
0.006,0.496,1.302,1.302,216.223,186.159,192.669
0.008,0.618,1.378,1.378,216.264,186.063,192.606
0.009,0.738,1.459,1.459,216.307,185.971,192.541
0.011,0.857,1.546,1.545,216.352,185.883,192.474
0.012,0.975,1.637,1.637,216.401,185.801,192.406
0.014,1.091,1.731,1.730,216.454,185.724,192.337
0.015,1.207,1.823,1.822,216.510,185.653,192.265
0.017,1.322,1.912,1.911,216.572,185.590,192.191
0.018,1.437,1.993,1.993,216.637,185.533,192.115
0.020,1.552,2.065,2.064,216.705,185.484,192.036
0.021,1.666,2.123,2.124,216.775,185.442,191.957
0.023,1.780,2.170,2.171,216.845,185.406,191.875
0.024,1.892,2.208,2.210,216.915,185.377,191.793
0.026,2.002,2.240,2.243,216.984,185.355,191.709
0.027,2.111,2.269,2.272,217.051,185.340,191.625
0.029,2.217,2.298,2.300,217.114,185.330,191.540
0.030,2.321,2.331,2.330,217.173,185.328,191.454
0.032,2.422,2.368,2.364,217.226,185.331,191.368
0.034,2.520,2.408,2.402,217.275,185.339,191.283
0.035,2.615,2.450,2.441,217.318,185.347,191.200
0.037,2.705,2.492,2.481,217.358,185.354,191.120
0.038,2.789,2.530,2.521,217.394,185.356,191.043
0.040,2.869,2.564,2.560,217.428,185.351,190.971
0.041,2.943,2.592,2.597,217.459,185.335,190.906
0.043,3.015,2.613,2.631,217.488,185.306,190.847
0.044,3.089,2.630,2.663,217.516,185.261,190.796
0.046,3.170,2.645,2.694,217.543,185.197,190.754
0.047,3.265,2.661,2.724,217.570,185.111,190.722
0.049,3.375,2.681,2.754,217.597,185.007,190.699
0.050,3.499,2.706,2.785,217.624,184.887,190.685
0.052,3.632,2.739,2.816,217.650,184.757,190.677
0.053,3.771,2.779,2.848,217.675,184.620,190.675
0.055,3.911,2.823,2.880,217.698,184.482,190.676
0.056,4.048,2.868,2.911,217.721,184.346,190.681
0.058,4.179,2.913,2.941,217.741,184.218,190.686
0.059,4.297,2.955,2.970,217.760,184.101,190.692
0.061,4.400,2.992,2.996,217.777,184.000,190.696
0.063,4.482,3.022,3.020,217.791,183.919,190.698
0.064,4.545,3.046,3.041,217.803,183.857,190.698
0.066,4.592,3.065,3.059,217.812,183.811,190.696
0.067,4.629,3.080,3.075,217.820,183.775,190.695
0.069,4.658,3.091,3.088,217.825,183.746,190.695
0.070,4.685,3.099,3.099,217.827,183.719,190.698
0.072,4.715,3.106,3.107,217.828,183.691,190.706
0.073,4.751,3.112,3.114,217.828,183.656,190.719
0.075,4.800,3.119,3.121,217.825,183.612,190.738
0.076,4.866,3.129,3.130,217.821,183.553,190.766
0.078,4.952,3.141,3.143,217.815,183.476,190.804
0.079,5.058,3.159,3.160,217.808,183.380,190.850
0.081,5.180,3.183,3.183,217.800,183.271,190.903
0.082,5.313,3.214,3.214,217.791,183.151,190.961
0.084,5.452,3.250,3.250,217.782,183.027,191.022
0.085,5.592,3.290,3.290,217.774,182.901,191.083
0.087,5.729,3.331,3.330,217.765,182.778,191.143
0.088,5.857,3.370,3.370,217.758,182.663,191.199
0.090,5.972,3.405,3.405,217.752,182.559,191.249
0.091,6.070,3.435,3.435,217.748,182.472,191.292
0.093,6.145,3.458,3.458,217.746,182.405,191.324
0.095,6.196,3.474,3.474,217.746,182.358,191.347
0.096,6.228,3.485,3.485,217.747,182.330,191.361
0.098,6.243,3.491,3.491,217.750,182.316,191.367
0.099,6.248,3.493,3.493,217.754,182.315,191.368
0.101,6.256,3.492,3.492,217.759,182.321,191.366
0.102,6.270,3.488,3.488,217.764,182.333,191.360
0.104,6.286,3.482,3.482,217.769,182.347,191.355
0.105,6.301,3.476,3.476,217.774,182.361,191.350
0.107,6.311,3.470,3.470,217.777,182.369,191.347
0.108,6.314,3.465,3.465,217.780,182.371,191.349
0.110,6.324,3.463,3.463,217.782,182.364,191.356
0.111,6.342,3.463,3.463,217.782,182.350,191.367
0.113,6.366,3.467,3.467,217.782,182.331,191.381
0.114,6.394,3.473,3.473,217.782,182.309,191.399
0.116,6.425,3.479,3.479,217.781,182.286,191.420
0.117,6.456,3.482,3.482,217.781,182.264,191.442
0.119,6.486,3.482,3.482,217.781,182.245,191.466
0.120,6.514,3.476,3.476,217.782,182.232,191.490
0.122,6.540,3.461,3.461,217.785,182.224,191.514
0.123,6.564,3.440,3.440,217.788,182.226,191.538
0.125,6.590,3.414,3.414,217.793,182.237,191.562
0.127,6.619,3.386,3.386,217.796,182.254,191.585
0.128,6.650,3.359,3.359,217.796,182.274,191.609
0.130,6.683,3.337,3.337,217.790,182.293,191.635
0.131,6.718,3.322,3.322,217.778,182.309,191.663
0.133,6.757,3.315,3.315,217.755,182.318,191.693
0.134,6.806,3.315,3.315,217.721,182.317,191.728
0.136,6.869,3.316,3.316,217.673,182.303,191.767
0.137,6.953,3.312,3.312,217.609,182.272,191.812
0.139,7.063,3.299,3.299,217.526,182.221,191.863
0.140,7.200,3.272,3.272,217.425,182.149,191.920
0.142,7.361,3.225,3.225,217.308,182.057,191.984
0.143,7.544,3.156,3.156,217.179,181.949,192.056
0.145,7.745,3.069,3.069,217.041,181.827,192.135
0.146,7.958,2.970,2.970,216.899,181.695,192.223
0.148,8.182,2.862,2.862,216.754,181.554,192.319
0.149,8.410,2.750,2.750,216.611,181.409,192.423
0.151,8.642,2.640,2.640,216.474,181.261,192.536
0.152,8.872,2.535,2.535,216.347,181.113,192.659
0.154,9.099,2.439,2.439,216.231,180.969,192.791
0.155,9.322,2.352,2.352,216.131,180.830,192.932
0.157,9.540,2.277,2.277,216.044,180.697,193.082
0.159,9.755,2.213,2.213,215.967,180.570,193.238
0.160,9.968,2.164,2.164,215.899,180.448,193.399
0.162,10.178,2.129,2.129,215.837,180.332,193.563
0.163,10.385,2.110,2.110,215.779,180.222,193.728
0.165,10.590,2.104,2.104,215.722,180.116,193.893
0.166,10.790,2.111,2.111,215.663,180.016,194.057
0.168,10.987,2.127,2.127,215.600,179.921,194.217
0.169,11.178,2.151,2.151,215.531,179.831,194.372
0.171,11.366,2.180,2.180,215.455,179.746,194.520
0.172,11.548,2.212,2.212,215.371,179.666,194.661
0.174,11.725,2.246,2.246,215.282,179.592,194.794
0.175,11.894,2.279,2.279,215.190,179.523,194.919
0.177,12.055,2.309,2.309,215.097,179.461,195.035
0.178,12.207,2.336,2.336,215.004,179.406,195.141
0.180,12.348,2.356,2.356,214.914,179.357,195.238
0.181,12.476,2.369,2.369,214.828,179.316,195.324
0.183,12.590,2.373,2.373,214.749,179.282,195.398
0.184,12.689,2.369,2.369,214.677,179.256,195.462
0.186,12.772,2.359,2.359,214.615,179.239,195.513
0.188,12.839,2.346,2.346,214.563,179.228,195.554
0.189,12.892,2.332,2.332,214.520,179.223,195.584
0.191,12.933,2.320,2.320,214.485,179.223,195.607
0.192,12.965,2.312,2.312,214.457,179.226,195.622
0.194,12.988,2.310,2.310,214.436,179.231,195.631
0.195,13.004,2.312,2.312,214.422,179.236,195.635
0.197,13.015,2.317,2.317,214.413,179.241,195.636
0.198,13.020,2.323,2.323,214.408,179.244,195.635
0.200,13.022,2.329,2.329,214.408,179.243,195.633
0.201,13.028,2.333,2.333,214.412,179.238,195.631
0.203,13.039,2.334,2.334,214.417,179.229,195.631
0.204,13.052,2.330,2.330,214.423,179.217,195.631
0.206,13.066,2.324,2.324,214.427,179.203,195.631
0.207,13.080,2.316,2.316,214.427,179.189,195.633
0.209,13.095,2.306,2.306,214.422,179.175,195.636
0.210,13.112,2.297,2.297,214.411,179.163,195.640
0.212,13.136,2.288,2.288,214.390,179.154,195.645
0.213,13.168,2.281,2.281,214.359,179.149,195.651
0.215,13.212,2.275,2.275,214.315,179.149,195.658
0.216,13.270,2.270,2.270,214.258,179.155,195.667
0.218,13.343,2.266,2.266,214.187,179.167,195.677
0.220,13.428,2.261,2.261,214.104,179.184,195.688
0.221,13.524,2.255,2.255,214.012,179.204,195.701
0.223,13.628,2.247,2.247,213.911,179.227,195.716
0.224,13.740,2.237,2.237,213.803,179.251,195.733
0.226,13.856,2.226,2.226,213.691,179.276,195.751
0.227,13.975,2.215,2.215,213.576,179.300,195.772
0.229,14.096,2.203,2.203,213.460,179.321,195.794
0.230,14.216,2.193,2.193,213.344,179.340,195.819
0.232,14.334,2.184,2.184,213.230,179.355,195.845
0.233,14.449,2.177,2.177,213.119,179.366,195.875
0.235,14.562,2.173,2.173,213.011,179.371,195.907
0.236,14.672,2.170,2.170,212.907,179.372,195.941
0.238,14.780,2.168,2.168,212.806,179.368,195.979
0.239,14.886,2.165,2.165,212.708,179.358,196.019
0.241,14.991,2.163,2.163,212.614,179.344,196.063
0.242,15.094,2.158,2.158,212.524,179.324,196.111
0.244,15.198,2.152,2.152,212.437,179.299,196.162
0.245,15.301,2.144,2.144,212.355,179.268,196.216
0.247,15.406,2.135,2.135,212.277,179.231,196.275
0.248,15.511,2.126,2.126,212.203,179.190,196.337
0.250,15.615,2.117,2.117,212.133,179.144,196.400
0.252,15.718,2.108,2.108,212.068,179.097,196.464
0.253,15.818,2.101,2.101,212.008,179.048,196.527
0.255,15.913,2.095,2.095,211.953,179.001,196.588
0.256,16.002,2.091,2.091,211.902,178.955,196.645
0.258,16.083,2.087,2.087,211.857,178.912,196.697
0.259,16.154,2.084,2.084,211.817,178.874,196.742
0.261,16.214,2.082,2.082,211.783,178.842,196.780
0.262,16.261,2.079,2.079,211.754,178.818,196.808
0.264,16.296,2.077,2.077,211.729,178.801,196.826
0.265,16.322,2.075,2.075,211.709,178.790,196.837
0.267,16.342,2.072,2.072,211.690,178.783,196.841
0.268,16.361,2.071,2.071,211.671,178.779,196.841
0.270,16.382,2.069,2.069,211.652,178.775,196.837
0.271,16.405,2.068,2.068,211.629,178.770,196.831
0.273,16.434,2.068,2.068,211.602,178.763,196.826
0.274,16.469,2.069,2.069,211.570,178.751,196.822
0.276,16.512,2.070,2.070,211.530,178.733,196.821
0.277,16.568,2.072,2.072,211.481,178.707,196.825
0.279,16.636,2.074,2.074,211.423,178.673,196.834
0.280,16.714,2.075,2.075,211.359,178.631,196.848
0.282,16.799,2.077,2.077,211.289,178.584,196.867
0.284,16.890,2.077,2.077,211.218,178.533,196.889
0.285,16.984,2.077,2.077,211.146,178.478,196.914
0.287,17.077,2.076,2.076,211.076,178.422,196.941
0.288,17.168,2.076,2.076,211.011,178.366,196.970
0.290,17.254,2.075,2.075,210.953,178.311,197.001
0.291,17.332,2.075,2.075,210.904,178.258,197.032
0.293,17.402,2.075,2.075,210.866,178.209,197.062
0.294,17.462,2.077,2.077,210.840,178.165,197.093
0.296,17.516,2.078,2.078,210.824,178.123,197.124
0.297,17.568,2.077,2.077,210.818,178.081,197.155
0.299,17.622,2.073,2.073,210.818,178.039,197.189
0.300,17.679,2.064,2.064,210.822,177.994,197.224
0.302,17.742,2.048,2.048,210.829,177.945,197.262
0.303,17.812,2.025,2.025,210.837,177.888,197.303
0.305,17.891,1.993,1.993,210.844,177.824,197.348
0.306,17.980,1.958,1.958,210.847,177.749,197.397
0.308,18.082,1.922,1.922,210.845,177.663,197.452
0.309,18.198,1.891,1.891,210.837,177.564,197.511
0.311,18.325,1.869,1.869,210.822,177.454,197.572
0.313,18.459,1.859,1.859,210.800,177.336,197.632
0.314,18.598,1.866,1.866,210.773,177.211,197.687
0.316,18.739,1.888,1.888,210.740,177.083,197.735
0.317,18.879,1.920,1.920,210.701,176.953,197.771
0.319,19.018,1.957,1.957,210.657,176.824,197.794
0.320,19.153,1.993,1.993,210.608,176.698,197.799
0.322,19.286,2.022,2.022,210.554,176.578,197.783
0.323,19.419,2.038,2.038,210.496,176.465,197.744
0.325,19.556,2.039,2.039,210.433,176.361,197.679
0.326,19.703,2.025,2.025,210.365,176.265,197.591
0.328,19.860,2.001,2.001,210.291,176.175,197.486
0.329,20.028,1.970,1.970,210.210,176.088,197.367
0.331,20.205,1.937,1.937,210.121,176.003,197.239
0.332,20.391,1.905,1.905,210.024,175.918,197.107
0.334,20.583,1.878,1.878,209.916,175.829,196.973
0.335,20.782,1.858,1.858,209.799,175.736,196.844
0.337,20.985,1.849,1.849,209.669,175.637,196.722
0.338,21.194,1.850,1.850,209.528,175.528,196.613
0.340,21.409,1.864,1.864,209.374,175.410,196.520
0.341,21.630,1.893,1.893,209.210,175.284,196.443
0.343,21.854,1.938,1.938,209.039,175.153,196.380
0.345,22.079,2.000,2.000,208.865,175.020,196.329
0.346,22.300,2.075,2.075,208.691,174.889,196.291
0.348,22.515,2.158,2.158,208.520,174.763,196.262
0.349,22.719,2.243,2.243,208.355,174.644,196.242
0.351,22.908,2.323,2.323,208.200,174.536,196.230
0.352,23.079,2.393,2.393,208.058,174.443,196.224
0.354,23.226,2.446,2.446,207.932,174.366,196.222
0.355,23.347,2.479,2.479,207.825,174.309,196.223
0.357,23.444,2.494,2.494,207.737,174.269,196.227
0.358,23.519,2.495,2.495,207.667,174.240,196.230
0.360,23.577,2.486,2.486,207.614,174.218,196.233
0.361,23.620,2.472,2.472,207.576,174.198,196.232
0.363,23.653,2.455,2.455,207.553,174.176,196.227
0.364,23.686,2.441,2.441,207.543,174.145,196.215
0.366,23.733,2.431,2.431,207.546,174.102,196.196
0.367,23.801,2.426,2.426,207.560,174.042,196.168
0.369,23.895,2.425,2.425,207.583,173.960,196.130
0.370,24.020,2.428,2.428,207.616,173.851,196.079
0.372,24.171,2.436,2.436,207.655,173.717,196.020
0.373,24.343,2.449,2.449,207.697,173.562,195.959
0.375,24.530,2.466,2.466,207.739,173.389,195.899
0.377,24.727,2.486,2.486,207.777,173.203,195.848
0.378,24.930,2.507,2.507,207.810,173.007,195.810
0.380,25.134,2.527,2.527,207.833,172.805,195.790
0.381,25.339,2.543,2.543,207.843,172.600,195.794
0.383,25.546,2.555,2.555,207.838,172.396,195.828
0.384,25.757,2.559,2.559,207.813,172.198,195.897
0.386,25.980,2.555,2.555,207.768,172.009,196.005
0.387,26.219,2.547,2.547,207.702,171.830,196.149
0.389,26.472,2.540,2.540,207.620,171.663,196.322
0.390,26.736,2.536,2.536,207.527,171.508,196.514
0.392,27.005,2.541,2.541,207.426,171.366,196.718
0.393,27.270,2.557,2.557,207.323,171.237,196.926
0.395,27.525,2.590,2.590,207.220,171.123,197.129
0.396,27.760,2.637,2.637,207.123,171.024,197.319
0.398,27.968,2.694,2.694,207.036,170.941,197.489
0.399,28.140,2.756,2.756,206.963,170.875,197.630
0.401,28.267,2.817,2.817,206.908,170.827,197.734
0.402,28.350,2.873,2.873,206.871,170.794,197.801
0.404,28.396,2.917,2.917,206.850,170.775,197.837
0.405,28.412,2.947,2.947,206.842,170.767,197.847
0.407,28.421,2.963,2.963,206.843,170.767,197.838
0.409,28.446,2.968,2.968,206.852,170.773,197.816
0.410,28.480,2.965,2.965,206.865,170.782,197.785
0.412,28.517,2.958,2.958,206.880,170.791,197.753
0.413,28.549,2.949,2.949,206.894,170.798,197.724
0.415,28.571,2.941,2.941,206.903,170.800,197.705
0.416,28.579,2.936,2.936,206.907,170.795,197.701
0.418,28.597,2.933,2.933,206.903,170.781,197.713
0.419,28.631,2.931,2.931,206.891,170.762,197.738
0.421,28.675,2.930,2.930,206.874,170.740,197.773
0.422,28.727,2.928,2.928,206.852,170.716,197.813
0.424,28.783,2.925,2.925,206.825,170.693,197.856
0.425,28.838,2.920,2.920,206.794,170.672,197.897
0.427,28.891,2.914,2.914,206.760,170.657,197.934
0.428,28.938,2.908,2.908,206.723,170.649,197.962
0.430,28.979,2.903,2.903,206.685,170.650,197.978
0.431,29.020,2.900,2.900,206.647,170.662,197.980
0.433,29.066,2.901,2.901,206.608,170.684,197.967
0.434,29.116,2.907,2.907,206.571,170.710,197.946
0.436,29.163,2.918,2.918,206.537,170.736,197.926
0.438,29.200,2.930,2.930,206.508,170.754,197.913
0.439,29.224,2.940,2.940,206.484,170.761,197.914
0.441,29.255,2.945,2.945,206.468,170.748,197.936
0.442,29.318,2.940,2.940,206.460,170.712,197.987
0.444,29.427,2.921,2.921,206.462,170.646,198.075
0.445,29.593,2.884,2.884,206.476,170.545,198.205
0.447,29.824,2.832,2.832,206.502,170.403,198.385
0.448,30.121,2.772,2.772,206.541,170.220,198.617
0.450,30.471,2.712,2.712,206.591,170.005,198.888
0.451,30.858,2.659,2.659,206.648,169.769,199.189
0.453,31.267,2.623,2.623,206.711,169.520,199.507
0.454,31.683,2.611,2.611,206.776,169.269,199.833
0.456,32.091,2.629,2.629,206.842,169.026,200.154
0.457,32.475,2.673,2.673,206.905,168.801,200.459
0.459,32.822,2.736,2.736,206.964,168.604,200.737
0.460,33.115,2.808,2.808,207.016,168.443,200.978
0.462,33.341,2.882,2.882,207.057,168.331,201.169
0.463,33.494,2.947,2.947,207.088,168.269,201.305
0.465,33.587,2.998,2.998,207.109,168.248,201.393
0.466,33.638,3.027,3.027,207.122,168.256,201.441
0.468,33.669,3.038,3.038,207.130,168.283,201.457
0.470,33.704,3.037,3.037,207.134,168.316,201.448
0.471,33.742,3.026,3.026,207.136,168.345,201.423
0.473,33.779,3.011,3.011,207.138,168.357,201.388
0.474,33.817,2.995,2.995,207.142,168.341,201.353
0.476,33.880,2.983,2.983,207.150,168.286,201.325
0.477,33.987,2.977,2.977,207.163,168.180,201.312
0.479,34.150,2.979,2.979,207.184,168.018,201.318
0.480,34.363,2.988,2.988,207.210,167.809,201.342
0.482,34.612,3.006,3.006,207.241,167.565,201.380
0.483,34.885,3.033,3.033,207.275,167.297,201.428
0.485,35.172,3.071,3.071,207.311,167.018,201.481
0.486,35.458,3.119,3.119,207.347,166.740,201.537
0.488,35.732,3.174,3.174,207.384,166.474,201.592
0.489,35.981,3.232,3.232,207.418,166.232,201.641
0.491,36.193,3.289,3.289,207.450,166.026,201.681
0.492,36.356,3.341,3.341,207.477,165.868,201.708
0.494,36.461,3.383,3.383,207.498,165.766,201.720
0.495,36.517,3.412,3.412,207.514,165.712,201.720
0.497,36.537,3.426,3.426,207.525,165.698,201.710
0.498,36.559,3.428,3.428,207.531,165.712,201.695
0.500,36.596,3.421,3.421,207.533,165.745,201.679
0.502,36.640,3.409,3.409,207.529,165.787,201.664
0.503,36.683,3.396,3.396,207.521,165.828,201.655
0.505,36.715,3.384,3.384,207.509,165.857,201.655
0.506,36.737,3.377,3.377,207.493,165.865,201.668
0.508,36.779,3.377,3.377,207.473,165.842,201.698
0.509,36.862,3.384,3.384,207.450,165.780,201.747
0.511,36.983,3.398,3.398,207.423,165.683,201.814
0.512,37.138,3.419,3.419,207.393,165.556,201.898
0.514,37.320,3.448,3.448,207.361,165.407,201.997
0.515,37.522,3.486,3.486,207.328,165.241,202.108
0.517,37.738,3.533,3.533,207.293,165.066,202.229
0.518,37.962,3.586,3.586,207.257,164.887,202.360
0.520,38.188,3.645,3.645,207.220,164.711,202.497
0.521,38.410,3.709,3.709,207.183,164.545,202.638
0.523,38.622,3.776,3.776,207.147,164.394,202.783
0.524,38.819,3.844,3.844,207.112,164.265,202.928
0.526,39.003,3.913,3.913,207.078,164.157,203.073
0.527,39.175,3.980,3.980,207.045,164.067,203.215
0.529,39.336,4.046,4.046,207.015,163.992,203.354
0.530,39.486,4.109,4.109,206.987,163.929,203.488
0.532,39.627,4.169,4.169,206.961,163.876,203.616
0.534,39.757,4.224,4.225,206.938,163.830,203.736
0.535,39.877,4.275,4.275,206.919,163.788,203.846
0.537,39.986,4.320,4.320,206.903,163.748,203.946
0.538,40.084,4.360,4.360,206.891,163.705,204.034
0.540,40.172,4.395,4.394,206.884,163.659,204.108
0.541,40.253,4.425,4.425,206.881,163.608,204.171
0.543,40.330,4.452,4.451,206.881,163.553,204.225
0.544,40.406,4.475,4.475,206.885,163.495,204.273
0.546,40.482,4.495,4.496,206.892,163.433,204.318
0.547,40.561,4.514,4.515,206.901,163.368,204.362
0.549,40.643,4.532,4.534,206.913,163.301,204.408
0.550,40.730,4.552,4.554,206.926,163.233,204.460
0.552,40.823,4.575,4.578,206.941,163.163,204.519
0.553,40.924,4.604,4.606,206.957,163.092,204.590
0.555,41.036,4.641,4.642,206.974,163.020,204.673
0.556,41.156,4.686,4.685,206.991,162.949,204.769
0.558,41.282,4.740,4.735,207.008,162.880,204.873
0.559,41.411,4.799,4.791,207.024,162.812,204.982
0.561,41.539,4.859,4.849,207.039,162.749,205.092
0.563,41.663,4.916,4.907,207.051,162.689,205.200
0.564,41.780,4.969,4.962,207.062,162.636,205.303
0.566,41.884,5.012,5.011,207.069,162.589,205.396
0.567,41.974,5.044,5.053,207.073,162.549,205.477
0.569,42.045,5.065,5.088,207.072,162.518,205.541
0.570,42.095,5.077,5.115,207.068,162.497,205.585
0.572,42.125,5.084,5.136,207.059,162.484,205.610
0.573,42.140,5.087,5.150,207.048,162.479,205.620
0.575,42.151,5.088,5.159,207.037,162.480,205.619
0.576,42.166,5.090,5.163,207.027,162.484,205.609
0.578,42.183,5.094,5.162,207.020,162.491,205.596
0.579,42.198,5.099,5.159,207.018,162.498,205.582
0.581,42.211,5.106,5.154,207.022,162.505,205.571
0.582,42.225,5.114,5.149,207.035,162.508,205.568
0.584,42.248,5.123,5.146,207.058,162.506,205.576
0.585,42.290,5.132,5.146,207.092,162.499,205.598
0.587,42.351,5.141,5.151,207.137,162.484,205.636
0.588,42.429,5.149,5.160,207.191,162.463,205.688
0.590,42.520,5.157,5.172,207.252,162.437,205.750
0.591,42.621,5.165,5.185,207.317,162.405,205.822
0.593,42.730,5.172,5.199,207.384,162.369,205.899
0.595,42.843,5.178,5.211,207.451,162.330,205.982
0.596,42.957,5.183,5.221,207.514,162.287,206.066
0.598,43.069,5.188,5.228,207.573,162.241,206.150
0.599,43.176,5.192,5.233,207.623,162.193,206.231
0.601,43.276,5.194,5.236,207.664,162.144,206.308
0.602,43.369,5.196,5.238,207.694,162.093,206.380
0.604,43.457,5.196,5.240,207.715,162.040,206.447
0.605,43.544,5.195,5.244,207.730,161.985,206.512
0.607,43.631,5.193,5.250,207.739,161.925,206.575
0.608,43.721,5.190,5.259,207.744,161.861,206.638
0.610,43.816,5.187,5.269,207.748,161.792,206.703
0.611,43.917,5.185,5.282,207.753,161.717,206.770
0.613,44.026,5.185,5.295,207.759,161.634,206.841
0.614,44.144,5.189,5.309,207.770,161.545,206.918
0.616,44.274,5.197,5.323,207.786,161.447,207.002
0.617,44.415,5.211,5.337,207.809,161.341,207.092
0.619,44.564,5.228,5.351,207.837,161.230,207.187
0.620,44.718,5.248,5.364,207.869,161.116,207.285
0.622,44.872,5.267,5.377,207.904,161.002,207.384
