"T","Distance","Radius","FreeRadius","X","Y","Z"
0.000,0.000,0.915,0.915,216.836,182.865,168.645
0.001,0.068,0.883,0.883,216.839,182.849,168.711
0.002,0.132,0.853,0.853,216.841,182.834,168.773
0.003,0.188,0.828,0.828,216.844,182.820,168.827
0.004,0.233,0.808,0.808,216.846,182.809,168.871
0.005,0.263,0.797,0.797,216.849,182.802,168.900
0.006,0.274,0.795,0.795,216.853,182.798,168.910
0.007,0.287,0.806,0.806,216.856,182.799,168.897
0.008,0.326,0.831,0.831,216.861,182.806,168.859
0.010,0.395,0.872,0.872,216.865,182.819,168.791
0.011,0.499,0.932,0.932,216.871,182.839,168.690
0.012,0.640,1.008,1.008,216.876,182.868,168.551
0.013,0.820,1.099,1.099,216.883,182.905,168.375
0.014,1.033,1.200,1.200,216.891,182.948,168.167
0.015,1.270,1.307,1.307,216.901,182.997,167.936
0.016,1.523,1.417,1.417,216.913,183.050,167.688
0.017,1.785,1.527,1.527,216.928,183.105,167.432
0.018,2.049,1.632,1.632,216.946,183.161,167.175
0.019,2.306,1.729,1.729,216.969,183.216,166.925
0.020,2.548,1.815,1.815,216.995,183.268,166.690
0.021,2.769,1.886,1.886,217.026,183.317,166.477
0.022,2.961,1.943,1.943,217.063,183.359,166.293
0.023,3.117,1.989,1.989,217.105,183.395,166.147
0.024,3.237,2.026,2.026,217.153,183.423,166.041
0.025,3.328,2.056,2.056,217.205,183.444,165.970
0.027,3.399,2.081,2.081,217.261,183.461,165.929
0.028,3.460,2.103,2.103,217.318,183.475,165.912
0.029,3.519,2.125,2.125,217.375,183.487,165.913
0.030,3.579,2.149,2.149,217.432,183.499,165.928
0.031,3.639,2.177,2.177,217.486,183.513,165.949
0.032,3.697,2.210,2.210,217.537,183.529,165.973
0.033,3.751,2.246,2.246,217.583,183.549,165.993
0.034,3.800,2.284,2.284,217.623,183.576,166.003
0.035,3.847,2.324,2.324,217.655,183.610,165.998
0.036,3.900,2.365,2.365,217.680,183.651,165.977
0.037,3.961,2.404,2.404,217.697,183.699,165.943
0.038,4.031,2.442,2.442,217.708,183.750,165.897
0.039,4.108,2.477,2.477,217.713,183.805,165.842
0.040,4.190,2.508,2.508,217.712,183.861,165.782
0.041,4.275,2.534,2.534,217.708,183.916,165.718
0.042,4.359,2.555,2.555,217.700,183.970,165.654
0.043,4.440,2.572,2.572,217.689,184.021,165.592
0.045,4.514,2.586,2.586,217.675,184.066,165.535
0.046,4.579,2.597,2.597,217.660,184.106,165.486
0.047,4.631,2.605,2.605,217.645,184.137,165.446
0.048,4.672,2.611,2.611,217.629,184.160,165.417
0.049,4.702,2.616,2.616,217.614,184.177,165.397
0.050,4.724,2.621,2.621,217.601,184.188,165.383
0.051,4.737,2.625,2.625,217.591,184.193,165.376
0.052,4.745,2.629,2.629,217.585,184.195,165.373
0.053,4.747,2.634,2.634,217.583,184.193,165.373
0.054,4.753,2.639,2.639,217.587,184.189,165.374
0.055,4.764,2.644,2.645,217.597,184.184,165.375
0.056,4.782,2.650,2.651,217.614,184.179,165.375
0.057,4.809,2.656,2.657,217.640,184.175,165.371
0.058,4.845,2.663,2.663,217.675,184.172,165.364
0.059,4.890,2.670,2.671,217.719,184.171,165.353
0.060,4.942,2.677,2.678,217.770,184.171,165.340
0.062,5.000,2.685,2.687,217.827,184.172,165.327
0.063,5.063,2.694,2.695,217.888,184.172,165.315
0.064,5.129,2.704,2.705,217.954,184.173,165.307
0.065,5.197,2.715,2.716,218.021,184.172,165.302
0.066,5.266,2.727,2.727,218.090,184.170,165.304
0.067,5.336,2.740,2.740,218.160,184.167,165.313
0.068,5.406,2.754,2.754,218.227,184.161,165.332
0.069,5.479,2.770,2.770,218.293,184.153,165.361
0.070,5.554,2.787,2.787,218.355,184.141,165.402
0.071,5.634,2.806,2.806,218.415,184.126,165.454
0.072,5.720,2.827,2.827,218.473,184.108,165.513
0.073,5.809,2.848,2.848,218.531,184.084,165.578
0.074,5.903,2.869,2.869,218.589,184.056,165.645
0.075,6.000,2.890,2.890,218.650,184.024,165.714
0.076,6.099,2.909,2.909,218.713,183.985,165.780
0.077,6.201,2.927,2.926,218.780,183.941,165.843
0.078,6.305,2.941,2.941,218.852,183.891,165.898
0.080,6.413,2.952,2.952,218.931,183.834,165.946
0.081,6.526,2.958,2.958,219.016,183.770,165.981
0.082,6.645,2.960,2.960,219.110,183.699,166.005
0.083,6.770,2.957,2.957,219.208,183.623,166.017
0.084,6.899,2.952,2.952,219.310,183.544,166.020
0.085,7.028,2.944,2.944,219.411,183.464,166.017
0.086,7.155,2.936,2.936,219.510,183.386,166.010
0.087,7.277,2.928,2.928,219.605,183.310,166.000
0.088,7.389,2.921,2.921,219.692,183.239,165.989
0.089,7.490,2.917,2.917,219.769,183.175,165.981
0.090,7.574,2.917,2.917,219.833,183.120,165.976
0.091,7.640,2.922,2.922,219.882,183.076,165.978
0.092,7.685,2.933,2.933,219.914,183.045,165.988
0.093,7.714,2.946,2.946,219.927,183.028,166.006
0.094,7.739,2.961,2.961,219.927,183.022,166.030
0.095,7.767,2.974,2.974,219.916,183.024,166.056
0.097,7.798,2.985,2.985,219.899,183.032,166.081
0.098,7.829,2.991,2.991,219.881,183.043,166.102
0.099,7.853,2.989,2.989,219.864,183.055,166.116
0.100,7.867,2.979,2.979,219.854,183.064,166.118
0.101,7.879,2.957,2.957,219.854,183.069,166.107
0.102,7.912,2.922,2.922,219.869,183.067,166.078
0.103,7.973,2.875,2.875,219.903,183.054,166.029
0.104,8.068,2.816,2.816,219.958,183.029,165.955
0.105,8.199,2.748,2.748,220.037,182.991,165.858
0.106,8.362,2.672,2.672,220.135,182.942,165.738
0.107,8.550,2.589,2.589,220.247,182.884,165.597
0.108,8.760,2.500,2.501,220.369,182.820,165.439
0.109,8.987,2.409,2.409,220.497,182.751,165.265
0.110,9.225,2.315,2.315,220.627,182.680,165.078
0.111,9.471,2.220,2.220,220.754,182.610,164.879
0.112,9.720,2.127,2.127,220.873,182.542,164.672
0.113,9.969,2.036,2.035,220.982,182.478,164.458
0.115,10.213,1.948,1.947,221.075,182.421,164.239
0.116,10.451,1.864,1.863,221.148,182.373,164.018
0.117,10.681,1.787,1.786,221.201,182.334,163.798
0.118,10.904,1.716,1.715,221.237,182.303,163.579
0.119,11.120,1.654,1.653,221.257,182.281,163.366
0.120,11.327,1.601,1.600,221.264,182.265,163.159
0.121,11.524,1.559,1.559,221.261,182.256,162.962
0.122,11.710,1.529,1.529,221.249,182.253,162.777
0.123,11.882,1.510,1.511,221.232,182.255,162.606
0.124,12.039,1.500,1.502,221.211,182.260,162.451
0.125,12.177,1.498,1.501,221.190,182.270,162.315
0.126,12.294,1.502,1.506,221.169,182.281,162.200
0.127,12.389,1.510,1.514,221.152,182.295,162.108
0.128,12.462,1.520,1.524,221.139,182.310,162.037
0.129,12.519,1.530,1.534,221.128,182.326,161.984
0.130,12.561,1.540,1.542,221.117,182.341,161.946
0.131,12.594,1.546,1.546,221.106,182.354,161.918
0.133,12.620,1.549,1.545,221.093,182.366,161.899
0.134,12.644,1.548,1.541,221.078,182.375,161.883
0.135,12.669,1.543,1.533,221.058,182.381,161.868
0.136,12.700,1.536,1.523,221.032,182.382,161.851
0.137,12.740,1.527,1.512,221.000,182.378,161.828
0.138,12.793,1.516,1.500,220.959,182.368,161.796
0.139,12.862,1.504,1.490,220.909,182.351,161.751
0.140,12.945,1.492,1.482,220.853,182.329,161.694
0.141,13.040,1.479,1.476,220.793,182.303,161.625
0.142,13.146,1.468,1.474,220.731,182.272,161.545
0.143,13.259,1.456,1.476,220.671,182.240,161.455
0.144,13.379,1.445,1.480,220.615,182.207,161.354
0.145,13.503,1.434,1.484,220.566,182.173,161.245
0.146,13.632,1.421,1.487,220.527,182.141,161.127
0.147,13.764,1.407,1.488,220.501,182.111,161.001
0.148,13.900,1.390,1.484,220.490,182.085,160.867
0.150,14.042,1.372,1.476,220.497,182.063,160.727
0.151,14.191,1.350,1.461,220.524,182.047,160.582
0.152,14.346,1.325,1.437,220.568,182.036,160.433
0.153,14.507,1.296,1.405,220.626,182.030,160.284
0.154,14.669,1.265,1.366,220.693,182.028,160.136
0.155,14.830,1.231,1.321,220.767,182.029,159.993
0.156,14.987,1.197,1.273,220.844,182.034,159.856
0.157,15.135,1.163,1.224,220.920,182.041,159.729
0.158,15.271,1.130,1.175,220.992,182.050,159.614
0.159,15.391,1.100,1.129,221.056,182.061,159.513
0.160,15.491,1.072,1.088,221.109,182.073,159.430
0.161,15.566,1.049,1.053,221.147,182.085,159.366
0.162,15.617,1.031,1.027,221.170,182.097,159.322
0.163,15.649,1.019,1.009,221.179,182.108,159.294
0.164,15.666,1.011,0.999,221.179,182.116,159.279
0.165,15.676,1.007,0.996,221.173,182.120,159.272
0.166,15.685,1.006,0.997,221.164,182.119,159.269
0.168,15.696,1.008,1.003,221.157,182.112,159.267
0.169,15.713,1.012,1.012,221.153,182.096,159.262
0.170,15.741,1.018,1.023,221.158,182.072,159.248
0.171,15.787,1.024,1.035,221.174,182.037,159.223
0.172,15.856,1.031,1.047,221.205,181.990,159.183
0.173,15.954,1.037,1.057,221.254,181.931,159.122
0.174,16.081,1.043,1.067,221.322,181.860,159.042
0.175,16.233,1.049,1.076,221.405,181.780,158.943
0.176,16.403,1.056,1.084,221.500,181.695,158.830
0.177,16.586,1.063,1.092,221.602,181.608,158.705
0.178,16.776,1.072,1.101,221.708,181.524,158.572
0.179,16.968,1.082,1.111,221.813,181.445,158.432
0.180,17.156,1.094,1.121,221.916,181.375,158.291
0.181,17.336,1.108,1.133,222.011,181.317,158.149
0.182,17.502,1.124,1.146,222.094,181.276,158.011
0.183,17.652,1.143,1.161,222.163,181.254,157.880
0.185,17.784,1.164,1.178,222.213,181.256,157.758
0.186,17.903,1.187,1.197,222.245,181.279,157.646
0.187,18.014,1.212,1.219,222.261,181.319,157.544
0.188,18.122,1.238,1.242,222.264,181.372,157.449
0.189,18.229,1.266,1.267,222.258,181.433,157.363
0.190,18.332,1.295,1.295,222.244,181.498,157.282
0.191,18.431,1.326,1.325,222.227,181.560,157.207
0.192,18.523,1.357,1.357,222.208,181.617,157.137
0.193,18.606,1.389,1.391,222.191,181.662,157.071
0.194,18.677,1.420,1.427,222.179,181.692,157.007
0.195,18.741,1.451,1.463,222.174,181.701,156.944
0.196,18.804,1.481,1.499,222.179,181.686,156.883
0.197,18.879,1.509,1.532,222.194,181.647,156.821
0.198,18.969,1.534,1.562,222.216,181.586,156.759
0.199,19.075,1.555,1.589,222.242,181.505,156.695
0.200,19.196,1.573,1.610,222.269,181.408,156.628
0.201,19.331,1.585,1.625,222.296,181.296,156.558
0.203,19.477,1.593,1.632,222.320,181.172,156.484
0.204,19.632,1.595,1.633,222.337,181.040,156.405
0.205,19.795,1.593,1.628,222.346,180.901,156.320
0.206,19.965,1.589,1.620,222.344,180.757,156.229
0.207,20.141,1.584,1.609,222.328,180.612,156.131
0.208,20.323,1.579,1.599,222.296,180.468,156.024
0.209,20.510,1.576,1.590,222.249,180.327,155.912
0.210,20.701,1.575,1.584,222.187,180.188,155.795
0.211,20.895,1.579,1.583,222.112,180.054,155.677
0.212,21.089,1.588,1.588,222.023,179.926,155.561
0.213,21.283,1.604,1.602,221.924,179.805,155.447
0.214,21.475,1.625,1.622,221.813,179.691,155.339
0.215,21.663,1.650,1.647,221.693,179.587,155.239
0.216,21.846,1.679,1.676,221.564,179.493,155.150
0.217,22.023,1.708,1.707,221.428,179.410,155.073
0.218,22.194,1.738,1.739,221.285,179.339,155.011
0.220,22.360,1.767,1.769,221.136,179.282,154.966
0.221,22.523,1.793,1.797,220.982,179.238,154.934
0.222,22.687,1.814,1.820,220.823,179.206,154.912
0.223,22.851,1.831,1.838,220.661,179.185,154.897
0.224,23.017,1.842,1.849,220.496,179.174,154.884
0.225,23.185,1.849,1.856,220.328,179.173,154.871
0.226,23.355,1.853,1.859,220.159,179.182,154.855
0.227,23.527,1.855,1.860,219.989,179.198,154.830
0.228,23.703,1.857,1.861,219.819,179.222,154.795
0.229,23.883,1.859,1.863,219.649,179.253,154.745
0.230,24.069,1.864,1.866,219.480,179.290,154.677
0.231,24.262,1.872,1.873,219.313,179.332,154.590
0.232,24.461,1.885,1.885,219.149,179.378,154.485
0.233,24.665,1.904,1.904,218.990,179.426,154.367
0.234,24.872,1.928,1.927,218.836,179.476,154.239
0.235,25.078,1.956,1.955,218.690,179.526,154.103
0.236,25.280,1.987,1.986,218.551,179.575,153.963
0.238,25.477,2.020,2.019,218.422,179.621,153.822
0.239,25.663,2.053,2.053,218.304,179.664,153.684
0.240,25.837,2.087,2.087,218.198,179.701,153.552
0.241,25.995,2.119,2.119,218.105,179.733,153.428
0.242,26.133,2.149,2.149,218.027,179.756,153.317
0.243,26.252,2.176,2.176,217.963,179.772,153.218
0.244,26.353,2.198,2.198,217.910,179.780,153.132
0.245,26.441,2.219,2.219,217.865,179.782,153.057
0.246,26.517,2.237,2.237,217.827,179.778,152.991
0.247,26.586,2.256,2.255,217.790,179.769,152.933
0.248,26.650,2.274,2.274,217.754,179.755,152.882
0.249,26.713,2.295,2.294,217.714,179.738,152.836
0.250,26.778,2.318,2.317,217.669,179.717,152.794
0.251,26.849,2.345,2.344,217.614,179.695,152.755
0.252,26.930,2.377,2.377,217.548,179.671,152.717
0.253,27.022,2.414,2.414,217.467,179.646,152.679
0.255,27.128,2.456,2.457,217.372,179.621,152.640
0.256,27.242,2.500,2.502,217.267,179.596,152.602
0.257,27.362,2.546,2.549,217.155,179.572,152.566
0.258,27.484,2.591,2.594,217.041,179.549,152.533
0.259,27.604,2.633,2.637,216.926,179.528,152.503
0.260,27.718,2.672,2.675,216.816,179.509,152.478
0.261,27.824,2.704,2.706,216.714,179.492,152.458
0.262,27.916,2.729,2.730,216.624,179.479,152.445
0.263,27.992,2.744,2.743,216.549,179.469,152.440
0.264,28.048,2.749,2.746,216.493,179.463,152.443
0.265,28.085,2.747,2.741,216.459,179.462,152.456
0.266,28.109,2.739,2.730,216.445,179.464,152.476
0.267,28.134,2.728,2.717,216.447,179.469,152.500
0.268,28.162,2.715,2.703,216.459,179.475,152.524
0.269,28.191,2.703,2.690,216.478,179.481,152.546
0.270,28.217,2.694,2.683,216.498,179.485,152.562
0.271,28.235,2.689,2.682,216.515,179.487,152.568
0.273,28.246,2.691,2.690,216.523,179.486,152.561
0.274,28.271,2.702,2.710,216.519,179.479,152.538
0.275,28.321,2.722,2.740,216.496,179.466,152.495
0.276,28.404,2.750,2.780,216.452,179.445,152.428
0.277,28.524,2.785,2.828,216.380,179.415,152.336
0.278,28.678,2.827,2.882,216.284,179.378,152.222
0.279,28.860,2.875,2.940,216.167,179.334,152.089
0.280,29.063,2.927,3.001,216.033,179.285,151.945
0.281,29.281,2.984,3.064,215.886,179.232,151.794
0.282,29.507,3.045,3.126,215.729,179.177,151.641
0.283,29.736,3.108,3.186,215.566,179.120,151.491
0.284,29.960,3.174,3.243,215.401,179.063,151.350
0.285,30.174,3.239,3.296,215.237,179.008,151.223
0.286,30.372,3.304,3.347,215.080,178.956,151.115
0.287,30.549,3.366,3.395,214.931,178.908,151.032
0.288,30.702,3.424,3.440,214.795,178.865,150.976
0.290,30.836,3.477,3.481,214.671,178.828,150.946
0.291,30.954,3.524,3.520,214.557,178.798,150.936
0.292,31.061,3.562,3.556,214.453,178.775,150.943
0.293,31.160,3.591,3.588,214.357,178.760,150.963
0.294,31.253,3.608,3.618,214.268,178.754,150.992
0.295,31.342,3.616,3.646,214.185,178.757,151.024
0.296,31.428,3.617,3.670,214.107,178.771,151.056
0.297,31.511,3.611,3.691,214.033,178.794,151.085
0.298,31.593,3.602,3.710,213.961,178.830,151.105
0.299,31.678,3.591,3.727,213.891,178.877,151.112
0.300,31.770,3.580,3.740,213.821,178.936,151.104
0.301,31.870,3.571,3.751,213.750,179.004,151.082
0.302,31.979,3.567,3.760,213.679,179.078,151.046
0.303,32.096,3.569,3.766,213.606,179.156,150.999
0.304,32.219,3.578,3.770,213.530,179.234,150.941
0.305,32.348,3.592,3.771,213.451,179.310,150.874
0.306,32.481,3.612,3.771,213.369,179.382,150.798
0.308,32.616,3.634,3.769,213.282,179.446,150.717
0.309,32.753,3.657,3.765,213.190,179.499,150.629
0.310,32.893,3.681,3.761,213.093,179.539,150.538
0.311,33.035,3.703,3.755,212.989,179.562,150.443
0.312,33.182,3.722,3.748,212.878,179.569,150.347
0.313,33.334,3.736,3.742,212.762,179.563,150.249
0.314,33.492,3.745,3.734,212.640,179.548,150.151
0.315,33.654,3.749,3.728,212.513,179.527,150.052
0.316,33.819,3.749,3.723,212.383,179.504,149.954
0.317,33.986,3.747,3.719,212.249,179.483,149.856
0.318,34.154,3.745,3.719,212.112,179.468,149.760
0.319,34.322,3.745,3.724,211.974,179.461,149.665
0.320,34.489,3.749,3.732,211.834,179.467,149.573
0.321,34.657,3.757,3.747,211.693,179.490,149.483
0.322,34.828,3.773,3.769,211.553,179.533,149.397
0.323,35.001,3.797,3.797,211.413,179.595,149.315
0.324,35.176,3.829,3.834,211.274,179.668,149.238
0.326,35.349,3.869,3.875,211.137,179.746,149.167
0.327,35.516,3.911,3.918,211.003,179.822,149.102
0.328,35.674,3.954,3.961,210.872,179.890,149.046
0.329,35.820,3.994,4.000,210.745,179.941,148.998
0.330,35.952,4.028,4.033,210.622,179.970,148.959
0.331,36.073,4.053,4.056,210.504,179.970,148.931
0.332,36.192,4.066,4.068,210.392,179.933,148.915
0.333,36.324,4.064,4.065,210.286,179.853,148.910
0.334,36.487,4.045,4.044,210.187,179.724,148.919
0.335,36.687,4.009,4.008,210.095,179.547,148.937
0.336,36.923,3.961,3.959,210.007,179.330,148.959
0.337,37.190,3.904,3.902,209.921,179.078,148.979
0.338,37.482,3.842,3.840,209.837,178.798,148.992
0.339,37.794,3.779,3.777,209.753,178.499,148.991
0.340,38.119,3.718,3.717,209.667,178.185,148.970
0.341,38.455,3.664,3.663,209.577,177.865,148.925
0.343,38.798,3.620,3.620,209.482,177.544,148.849
0.344,39.147,3.590,3.590,209.380,177.230,148.736
0.345,39.502,3.577,3.577,209.269,176.930,148.580
0.346,39.869,3.577,3.578,209.149,176.650,148.378
0.347,40.247,3.590,3.590,209.021,176.390,148.134
0.348,40.635,3.611,3.612,208.888,176.152,147.858
0.349,41.029,3.639,3.640,208.754,175.934,147.559
0.350,41.422,3.671,3.671,208.620,175.736,147.247
0.351,41.809,3.703,3.703,208.490,175.557,146.930
0.352,42.180,3.734,3.734,208.367,175.398,146.618
0.353,42.528,3.760,3.760,208.255,175.257,146.320
0.354,42.844,3.780,3.780,208.155,175.135,146.046
0.355,43.120,3.793,3.793,208.071,175.031,145.805
0.356,43.346,3.800,3.800,208.006,174.945,145.605
0.357,43.518,3.803,3.803,207.962,174.875,145.455
0.358,43.638,3.803,3.803,207.938,174.821,145.351
0.359,43.715,3.803,3.803,207.929,174.780,145.286
0.361,43.758,3.804,3.804,207.934,174.751,145.255
0.362,43.783,3.806,3.806,207.950,174.731,145.252
0.363,43.816,3.813,3.813,207.973,174.718,145.272
0.364,43.862,3.825,3.825,208.002,174.711,145.307
0.365,43.916,3.843,3.843,208.032,174.708,145.352
0.366,43.974,3.867,3.867,208.062,174.706,145.401
0.367,44.029,3.894,3.894,208.088,174.704,145.449
0.368,44.073,3.923,3.923,208.108,174.700,145.489
0.369,44.105,3.953,3.953,208.120,174.692,145.517
0.370,44.126,3.982,3.982,208.124,174.680,145.534
0.371,44.142,4.009,4.009,208.124,174.665,145.541
0.372,44.161,4.033,4.033,208.120,174.648,145.540
0.373,44.184,4.051,4.051,208.114,174.627,145.530
0.374,44.213,4.063,4.063,208.107,174.604,145.515
0.375,44.246,4.067,4.067,208.102,174.578,145.494
0.376,44.282,4.066,4.066,208.101,174.551,145.470
0.378,44.322,4.060,4.060,208.103,174.522,145.444
0.379,44.364,4.048,4.048,208.113,174.491,145.416
0.380,44.410,4.033,4.033,208.130,174.459,145.388
0.381,44.459,4.015,4.015,208.155,174.427,145.362
0.382,44.509,3.995,3.995,208.183,174.393,145.337
0.383,44.557,3.972,3.972,208.210,174.359,145.316
0.384,44.601,3.949,3.949,208.231,174.325,145.298
0.385,44.639,3.926,3.926,208.242,174.291,145.286
0.386,44.674,3.902,3.902,208.238,174.257,145.279
0.387,44.714,3.878,3.878,208.215,174.224,145.279
0.388,44.771,3.854,3.854,208.169,174.191,145.286
0.389,44.854,3.828,3.828,208.094,174.159,145.302
0.390,44.969,3.802,3.802,207.986,174.128,145.327
0.391,45.120,3.774,3.774,207.842,174.099,145.362
0.392,45.308,3.745,3.745,207.662,174.070,145.407
0.393,45.523,3.714,3.714,207.455,174.039,145.459
0.394,45.758,3.682,3.682,207.230,174.004,145.515
0.396,46.005,3.649,3.649,206.993,173.963,145.574
0.397,46.256,3.616,3.616,206.755,173.913,145.632
0.398,46.502,3.584,3.584,206.523,173.852,145.687
0.399,46.737,3.554,3.554,206.305,173.778,145.737
0.400,46.956,3.529,3.529,206.110,173.688,145.779
0.401,47.154,3.508,3.508,205.947,173.580,145.810
0.402,47.333,3.493,3.493,205.824,173.452,145.829
0.403,47.501,3.485,3.485,205.747,173.302,145.833
0.404,47.675,3.486,3.486,205.719,173.131,145.821
0.405,47.865,3.497,3.497,205.732,172.943,145.797
0.406,48.076,3.515,3.515,205.780,172.741,145.762
0.407,48.307,3.540,3.540,205.859,172.529,145.718
0.408,48.554,3.571,3.571,205.963,172.310,145.667
0.409,48.813,3.605,3.605,206.085,172.088,145.611
0.410,49.079,3.641,3.641,206.220,171.867,145.552
0.411,49.345,3.678,3.678,206.362,171.650,145.492
0.413,49.605,3.715,3.715,206.505,171.441,145.434
0.414,49.853,3.749,3.749,206.643,171.243,145.378
0.415,50.082,3.779,3.779,206.772,171.060,145.328
0.416,50.287,3.804,3.804,206.886,170.895,145.283
0.417,50.465,3.823,3.823,206.981,170.750,145.245
0.418,50.610,3.836,3.836,207.053,170.629,145.213
0.419,50.719,3.841,3.841,207.098,170.532,145.188
0.420,50.791,3.837,3.837,207.112,170.464,145.170
0.421,50.835,3.824,3.824,207.091,170.426,145.159
0.422,50.896,3.801,3.801,207.031,170.422,145.156
0.423,51.004,3.767,3.767,206.927,170.453,145.161
0.424,51.171,3.721,3.721,206.776,170.522,145.174
0.425,51.402,3.662,3.662,206.573,170.632,145.195
0.426,51.701,3.594,3.594,206.317,170.782,145.225
0.427,52.055,3.520,3.520,206.016,170.965,145.259
0.428,52.449,3.443,3.443,205.679,171.166,145.292
0.429,52.867,3.367,3.367,205.317,171.374,145.321
0.431,53.294,3.295,3.295,204.941,171.575,145.341
0.432,53.714,3.231,3.231,204.562,171.757,145.346
0.433,54.116,3.178,3.178,204.190,171.908,145.333
