"T","Distance","Radius","FreeRadius","X","Y","Z"
0.000,0.000,0.915,0.915,216.836,182.865,168.645
0.001,0.062,0.882,0.882,216.839,182.850,168.705
0.002,0.121,0.851,0.851,216.841,182.836,168.762
0.003,0.174,0.823,0.823,216.843,182.824,168.814
0.005,0.219,0.800,0.800,216.845,182.813,168.857
0.006,0.252,0.783,0.783,216.848,182.805,168.889
0.007,0.270,0.775,0.775,216.851,182.799,168.907
0.008,0.274,0.777,0.777,216.854,182.798,168.908
0.009,0.293,0.790,0.790,216.858,182.800,168.889
0.010,0.336,0.816,0.816,216.862,182.808,168.847
0.011,0.404,0.857,0.857,216.866,182.821,168.780
0.013,0.501,0.910,0.910,216.871,182.840,168.685
0.014,0.630,0.973,0.973,216.876,182.866,168.559
0.015,0.792,1.045,1.045,216.882,182.899,168.401
0.016,0.981,1.123,1.123,216.889,182.938,168.216
0.017,1.192,1.205,1.205,216.898,182.982,168.010
0.018,1.418,1.290,1.290,216.908,183.029,167.789
0.019,1.655,1.375,1.375,216.921,183.078,167.558
0.020,1.896,1.458,1.458,216.936,183.129,167.323
0.022,2.135,1.537,1.537,216.953,183.180,167.090
0.023,2.366,1.614,1.614,216.975,183.229,166.865
0.024,2.584,1.686,1.686,217.000,183.276,166.654
0.025,2.783,1.755,1.755,217.029,183.320,166.462
0.026,2.957,1.820,1.820,217.062,183.359,166.295
0.027,3.102,1.881,1.881,217.100,183.392,166.160
0.028,3.215,1.938,1.938,217.143,183.418,166.058
0.030,3.303,1.991,1.991,217.190,183.439,165.986
0.031,3.373,2.039,2.039,217.240,183.456,165.941
0.032,3.431,2.084,2.084,217.292,183.469,165.917
0.033,3.486,2.124,2.124,217.344,183.481,165.911
0.034,3.540,2.162,2.162,217.397,183.492,165.917
0.035,3.594,2.196,2.196,217.448,183.503,165.933
0.036,3.649,2.229,2.229,217.497,183.516,165.954
0.038,3.702,2.260,2.260,217.543,183.531,165.975
0.039,3.751,2.290,2.290,217.584,183.550,165.993
0.040,3.796,2.320,2.320,217.621,183.574,166.003
0.041,3.838,2.350,2.350,217.651,183.604,166.000
0.042,3.885,2.380,2.380,217.675,183.641,165.984
0.043,3.938,2.409,2.409,217.692,183.683,165.955
0.044,3.999,2.438,2.438,217.704,183.729,165.917
0.046,4.067,2.466,2.466,217.711,183.777,165.870
0.047,4.140,2.492,2.492,217.713,183.828,165.818
0.048,4.216,2.516,2.516,217.711,183.879,165.761
0.049,4.293,2.538,2.538,217.706,183.929,165.703
0.050,4.370,2.557,2.557,217.698,183.978,165.645
0.051,4.443,2.572,2.572,217.688,184.024,165.589
0.052,4.511,2.585,2.585,217.676,184.065,165.537
0.053,4.570,2.595,2.595,217.662,184.102,165.491
0.055,4.620,2.602,2.602,217.648,184.131,165.453
0.056,4.660,2.608,2.608,217.633,184.154,165.425
0.057,4.691,2.612,2.612,217.620,184.172,165.403
0.058,4.713,2.615,2.615,217.607,184.183,165.389
0.059,4.729,2.618,2.618,217.596,184.191,165.379
0.060,4.739,2.621,2.621,217.588,184.194,165.374
0.061,4.744,2.624,2.624,217.584,184.194,165.373
0.063,4.746,2.627,2.627,217.583,184.192,165.373
0.064,4.752,2.631,2.631,217.587,184.189,165.374
0.065,4.763,2.636,2.636,217.597,184.184,165.375
0.066,4.779,2.641,2.641,217.613,184.180,165.375
0.067,4.803,2.647,2.647,217.636,184.176,165.372
0.068,4.834,2.653,2.653,217.666,184.173,165.366
0.069,4.872,2.660,2.660,217.703,184.171,165.357
0.071,4.918,2.668,2.668,217.747,184.171,165.346
0.072,4.968,2.677,2.677,217.797,184.171,165.334
0.073,5.024,2.687,2.687,217.851,184.172,165.322
0.074,5.082,2.696,2.696,217.908,184.172,165.312
0.075,5.143,2.706,2.706,217.969,184.173,165.305
0.076,5.205,2.716,2.716,218.031,184.172,165.302
0.077,5.268,2.726,2.726,218.094,184.170,165.304
0.078,5.332,2.736,2.736,218.157,184.167,165.313
0.080,5.396,2.744,2.744,218.219,184.162,165.329
0.081,5.462,2.752,2.752,218.279,184.155,165.354
0.082,5.530,2.760,2.760,218.337,184.145,165.389
0.083,5.601,2.766,2.766,218.392,184.133,165.433
0.084,5.677,2.772,2.772,218.445,184.117,165.484
0.085,5.757,2.778,2.778,218.498,184.098,165.541
0.086,5.840,2.785,2.785,218.551,184.075,165.601
0.088,5.927,2.792,2.792,218.605,184.048,165.663
0.089,6.016,2.800,2.800,218.660,184.017,165.725
0.090,6.107,2.809,2.809,218.718,183.982,165.786
0.091,6.200,2.820,2.820,218.780,183.941,165.843
0.092,6.295,2.832,2.832,218.846,183.895,165.894
0.093,6.393,2.846,2.846,218.916,183.844,165.938
0.094,6.495,2.860,2.860,218.993,183.787,165.973
0.096,6.602,2.875,2.875,219.076,183.724,165.998
0.097,6.714,2.888,2.888,219.165,183.657,166.013
0.098,6.830,2.901,2.901,219.256,183.586,166.020
0.099,6.948,2.912,2.912,219.349,183.513,166.020
0.100,7.065,2.920,2.920,219.441,183.440,166.015
0.101,7.180,2.926,2.926,219.531,183.369,166.008
0.102,7.290,2.928,2.928,219.616,183.300,165.998
0.104,7.392,2.928,2.928,219.695,183.236,165.989
0.105,7.484,2.927,2.927,219.765,183.178,165.981
0.106,7.562,2.925,2.925,219.825,183.127,165.976
0.107,7.626,2.924,2.924,219.873,183.085,165.977
0.108,7.672,2.924,2.924,219.906,183.053,165.983
0.109,7.703,2.926,2.926,219.924,183.033,165.998
0.110,7.725,2.932,2.932,219.929,183.024,166.018
0.111,7.749,2.941,2.941,219.923,183.022,166.041
0.113,7.777,2.954,2.954,219.911,183.026,166.065
0.114,7.805,2.969,2.969,219.895,183.034,166.087
0.115,7.832,2.983,2.983,219.878,183.045,166.105
0.116,7.853,2.994,2.994,219.863,183.056,166.116
0.117,7.866,3.000,3.000,219.854,183.064,166.118
0.118,7.877,2.997,2.997,219.854,183.069,166.109
0.119,7.903,2.984,2.984,219.865,183.068,166.085
0.121,7.952,2.959,2.959,219.891,183.059,166.044
0.122,8.029,2.919,2.919,219.935,183.040,165.985
0.123,8.136,2.864,2.864,219.999,183.009,165.905
0.124,8.270,2.795,2.795,220.080,182.969,165.805
0.125,8.429,2.716,2.716,220.175,182.921,165.687
0.126,8.608,2.628,2.628,220.281,182.866,165.554
0.127,8.804,2.533,2.533,220.394,182.806,165.406
0.129,9.013,2.434,2.434,220.512,182.743,165.245
0.130,9.231,2.332,2.332,220.630,182.679,165.073
0.131,9.455,2.230,2.230,220.746,182.614,164.892
0.132,9.682,2.130,2.130,220.856,182.552,164.704
0.133,9.910,2.034,2.034,220.958,182.492,164.509
0.134,10.134,1.943,1.943,221.047,182.438,164.311
0.135,10.353,1.857,1.857,221.121,182.391,164.110
0.137,10.566,1.779,1.780,221.177,182.352,163.908
0.138,10.773,1.710,1.710,221.218,182.320,163.707
0.139,10.975,1.650,1.651,221.245,182.295,163.509
0.140,11.169,1.602,1.602,221.260,182.277,163.316
0.141,11.357,1.566,1.566,221.264,182.264,163.129
0.142,11.536,1.543,1.543,221.260,182.256,162.950
0.143,11.705,1.533,1.533,221.250,182.253,162.781
0.144,11.863,1.533,1.532,221.234,182.254,162.624
0.146,12.008,1.540,1.539,221.216,182.259,162.480
0.147,12.138,1.553,1.552,221.196,182.267,162.352
0.148,12.252,1.569,1.567,221.177,182.277,162.240
0.149,12.347,1.585,1.584,221.160,182.289,162.147
0.150,12.424,1.599,1.599,221.146,182.302,162.073
0.151,12.484,1.610,1.610,221.135,182.316,162.016
0.152,12.531,1.614,1.615,221.125,182.330,161.972
0.154,12.567,1.612,1.614,221.115,182.343,161.940
0.155,12.596,1.605,1.609,221.105,182.356,161.916
0.156,12.620,1.595,1.599,221.093,182.366,161.898
0.157,12.641,1.582,1.587,221.079,182.375,161.884
0.158,12.664,1.567,1.572,221.061,182.380,161.871
0.159,12.691,1.552,1.556,221.039,182.382,161.856
0.160,12.725,1.537,1.540,221.011,182.380,161.837
0.162,12.768,1.524,1.525,220.977,182.373,161.811
0.163,12.824,1.514,1.510,220.936,182.361,161.776
0.164,12.893,1.506,1.497,220.888,182.343,161.730
0.165,12.973,1.499,1.485,220.835,182.321,161.674
0.166,13.063,1.492,1.475,220.779,182.296,161.608
0.167,13.160,1.484,1.464,220.722,182.268,161.533
0.168,13.265,1.475,1.455,220.668,182.238,161.450
0.170,13.374,1.462,1.445,220.617,182.208,161.358
0.171,13.487,1.446,1.436,220.572,182.177,161.259
0.172,13.604,1.425,1.426,220.534,182.148,161.152
0.173,13.723,1.399,1.416,220.507,182.120,161.039
0.174,13.846,1.368,1.405,220.492,182.095,160.920
0.175,13.973,1.334,1.393,220.491,182.073,160.795
0.176,14.106,1.298,1.380,220.507,182.056,160.664
0.177,14.244,1.261,1.364,220.538,182.043,160.530
0.179,14.388,1.223,1.346,220.582,182.034,160.394
0.180,14.535,1.187,1.325,220.637,182.029,160.258
0.181,14.683,1.154,1.301,220.700,182.028,160.123
0.182,14.830,1.123,1.273,220.767,182.029,159.993
0.183,14.973,1.097,1.241,220.837,182.033,159.868
0.184,15.110,1.075,1.207,220.907,182.039,159.751
0.185,15.236,1.057,1.172,220.974,182.047,159.643
0.187,15.351,1.042,1.137,221.035,182.057,159.547
0.188,15.449,1.030,1.103,221.088,182.067,159.464
0.189,15.529,1.022,1.072,221.129,182.078,159.397
0.190,15.588,1.016,1.045,221.158,182.090,159.346
0.191,15.628,1.013,1.023,221.174,182.101,159.312
0.192,15.653,1.011,1.008,221.180,182.110,159.290
0.193,15.667,1.012,0.999,221.179,182.117,159.277
0.195,15.676,1.014,0.997,221.173,182.120,159.272
0.196,15.684,1.018,0.999,221.165,182.119,159.269
0.197,15.694,1.021,1.005,221.157,182.113,159.268
0.198,15.708,1.025,1.013,221.153,182.100,159.263
0.199,15.730,1.028,1.023,221.155,182.080,159.253
0.200,15.766,1.031,1.033,221.166,182.052,159.235
0.201,15.819,1.032,1.041,221.188,182.015,159.205
0.203,15.893,1.031,1.048,221.224,181.967,159.160
0.204,15.993,1.029,1.052,221.275,181.908,159.097
0.205,16.117,1.025,1.054,221.342,181.841,159.018
0.206,16.259,1.022,1.056,221.420,181.766,158.926
0.207,16.416,1.020,1.057,221.507,181.688,158.821
0.208,16.583,1.020,1.060,221.600,181.609,158.707
0.209,16.757,1.023,1.063,221.697,181.532,158.585
0.210,16.932,1.030,1.070,221.794,181.459,158.459
0.212,17.105,1.041,1.079,221.888,181.393,158.330
0.213,17.272,1.058,1.092,221.977,181.337,158.200
0.214,17.429,1.080,1.110,222.058,181.292,158.073
0.215,17.574,1.107,1.131,222.128,181.263,157.949
0.216,17.704,1.137,1.154,222.184,181.252,157.833
0.217,17.819,1.170,1.181,222.224,181.260,157.725
0.218,17.925,1.204,1.209,222.249,181.286,157.625
0.220,18.026,1.237,1.239,222.262,181.325,157.532
0.221,18.125,1.270,1.270,222.264,181.374,157.447
0.222,18.222,1.301,1.301,222.258,181.430,157.368
0.223,18.317,1.330,1.332,222.247,181.488,157.294
0.224,18.408,1.355,1.362,222.231,181.546,157.225
0.225,18.494,1.378,1.393,222.214,181.599,157.160
0.226,18.573,1.399,1.424,222.197,181.645,157.098
0.228,18.643,1.419,1.454,222.184,181.679,157.038
0.229,18.704,1.438,1.486,222.175,181.699,156.981
0.230,18.761,1.458,1.518,222.174,181.699,156.924
0.231,18.821,1.478,1.550,222.182,181.679,156.868
0.232,18.891,1.500,1.584,222.197,181.639,156.812
0.233,18.975,1.523,1.618,222.217,181.581,156.755
0.234,19.073,1.548,1.653,222.241,181.507,156.696
0.235,19.182,1.573,1.687,222.266,181.419,156.636
0.237,19.303,1.598,1.719,222.291,181.319,156.572
0.238,19.434,1.623,1.747,222.313,181.209,156.506
0.239,19.573,1.645,1.772,222.331,181.090,156.435
0.240,19.719,1.665,1.792,222.343,180.966,156.360
0.241,19.871,1.682,1.805,222.346,180.836,156.280
0.242,20.028,1.694,1.811,222.340,180.705,156.194
0.243,20.191,1.702,1.809,222.321,180.573,156.102
0.245,20.358,1.706,1.800,222.288,180.441,156.003
0.246,20.529,1.706,1.786,222.243,180.312,155.900
0.247,20.704,1.704,1.768,222.186,180.186,155.794
0.248,20.881,1.701,1.749,222.118,180.064,155.686
0.249,21.058,1.698,1.731,222.038,179.946,155.579
0.250,21.235,1.695,1.714,221.950,179.834,155.475
0.251,21.411,1.694,1.702,221.852,179.728,155.375
0.253,21.584,1.695,1.695,221.745,179.630,155.281
0.254,21.753,1.699,1.695,221.631,179.539,155.194
0.255,21.918,1.707,1.701,221.510,179.458,155.117
0.256,22.077,1.716,1.712,221.384,179.386,155.052
0.257,22.232,1.727,1.726,221.251,179.325,155.000
0.258,22.383,1.738,1.743,221.115,179.275,154.961
0.259,22.532,1.750,1.760,220.974,179.236,154.932
0.261,22.681,1.762,1.777,220.829,179.207,154.913
0.262,22.831,1.772,1.793,220.681,179.187,154.898
0.263,22.982,1.781,1.805,220.531,179.175,154.887
0.264,23.135,1.788,1.814,220.379,179.172,154.875
0.265,23.289,1.794,1.819,220.225,179.177,154.862
0.266,23.446,1.800,1.824,220.070,179.189,154.843
0.267,23.604,1.806,1.828,219.914,179.208,154.816
0.268,23.766,1.814,1.833,219.759,179.232,154.779
0.270,23.932,1.825,1.841,219.604,179.262,154.729
0.271,24.103,1.840,1.852,219.450,179.297,154.663
0.272,24.280,1.859,1.868,219.298,179.336,154.581
0.273,24.462,1.884,1.891,219.149,179.378,154.485
0.274,24.648,1.915,1.919,219.004,179.422,154.378
0.275,24.836,1.950,1.953,218.863,179.468,154.261
0.276,25.025,1.989,1.990,218.727,179.513,154.139
0.278,25.211,2.028,2.028,218.599,179.558,154.012
0.279,25.392,2.067,2.067,218.477,179.601,153.884
0.280,25.567,2.105,2.105,218.365,179.642,153.756
0.281,25.733,2.140,2.139,218.262,179.679,153.632
0.282,25.887,2.169,2.169,218.169,179.711,153.514
0.283,26.027,2.193,2.193,218.087,179.738,153.403
0.284,26.150,2.210,2.211,218.018,179.759,153.303
0.286,26.256,2.223,2.223,217.961,179.772,153.215
0.287,26.349,2.231,2.232,217.912,179.780,153.136
0.288,26.430,2.238,2.238,217.871,179.782,153.067
0.289,26.501,2.244,2.244,217.835,179.779,153.005
0.290,26.566,2.251,2.251,217.801,179.772,152.951
0.291,26.625,2.260,2.260,217.769,179.761,152.902
0.292,26.683,2.273,2.273,217.734,179.747,152.858
0.294,26.741,2.291,2.291,217.696,179.729,152.818
0.295,26.802,2.315,2.315,217.651,179.710,152.781
0.296,26.869,2.344,2.343,217.599,179.689,152.745
0.297,26.944,2.376,2.375,217.536,179.667,152.711
0.298,27.030,2.411,2.410,217.460,179.644,152.676
0.299,27.127,2.448,2.447,217.374,179.621,152.641
0.300,27.231,2.486,2.485,217.278,179.598,152.606
0.301,27.340,2.523,2.522,217.177,179.576,152.573
0.303,27.451,2.560,2.560,217.072,179.555,152.542
0.304,27.562,2.594,2.595,216.967,179.535,152.513
0.305,27.668,2.626,2.628,216.865,179.517,152.488
0.306,27.769,2.655,2.659,216.768,179.501,152.468
0.307,27.861,2.681,2.686,216.679,179.487,152.452
0.308,27.940,2.704,2.709,216.600,179.476,152.443
0.309,28.005,2.722,2.729,216.536,179.468,152.440
0.311,28.054,2.737,2.743,216.488,179.463,152.444
0.312,28.086,2.747,2.753,216.458,179.462,152.456
0.313,28.108,2.752,2.757,216.445,179.464,152.474
0.314,28.130,2.753,2.755,216.446,179.468,152.496
0.315,28.156,2.750,2.749,216.456,179.474,152.519
0.316,28.183,2.744,2.740,216.472,179.479,152.540
0.317,28.208,2.737,2.730,216.490,179.484,152.556
0.319,28.228,2.732,2.722,216.508,179.487,152.566
0.320,28.241,2.729,2.718,216.520,179.488,152.567
0.321,28.253,2.729,2.720,216.524,179.484,152.555
0.322,28.282,2.736,2.729,216.515,179.477,152.529
0.323,28.333,2.749,2.748,216.491,179.463,152.486
0.324,28.412,2.771,2.779,216.448,179.443,152.423
0.325,28.522,2.801,2.820,216.382,179.416,152.339
0.327,28.661,2.838,2.869,216.296,179.382,152.235
0.328,28.824,2.880,2.925,216.192,179.342,152.117
0.329,29.005,2.928,2.985,216.073,179.298,151.988
0.330,29.200,2.980,3.048,215.942,179.251,151.851
0.331,29.404,3.034,3.111,215.801,179.201,151.711
0.332,29.612,3.090,3.172,215.655,179.149,151.573
0.333,29.820,3.148,3.230,215.505,179.097,151.439
0.334,30.022,3.205,3.282,215.355,179.046,151.314
0.336,30.214,3.261,3.330,215.207,178.997,151.201
0.337,30.393,3.315,3.373,215.064,178.950,151.106
0.338,30.553,3.368,3.412,214.929,178.907,151.031
0.339,30.692,3.417,3.448,214.805,178.869,150.979
0.340,30.815,3.463,3.481,214.691,178.836,150.949
0.341,30.925,3.505,3.513,214.585,178.808,150.936
0.342,31.025,3.541,3.543,214.488,178.787,150.939
0.344,31.117,3.573,3.573,214.398,178.771,150.953
0.345,31.204,3.598,3.602,214.314,178.763,150.975
0.346,31.287,3.617,3.631,214.236,178.761,151.003
0.347,31.367,3.632,3.659,214.162,178.768,151.033
0.348,31.445,3.642,3.686,214.092,178.781,151.062
0.349,31.520,3.648,3.711,214.024,178.804,151.087
0.350,31.595,3.651,3.735,213.958,178.834,151.105
0.352,31.672,3.650,3.756,213.893,178.874,151.112
0.353,31.753,3.648,3.775,213.828,178.923,151.107
0.354,31.841,3.643,3.791,213.763,178.979,151.089
0.355,31.936,3.637,3.803,213.696,179.041,151.061
0.356,32.038,3.631,3.813,213.629,179.106,151.022
0.357,32.146,3.624,3.819,213.560,179.174,150.973
0.358,32.259,3.617,3.822,213.489,179.242,150.917
0.359,32.378,3.611,3.822,213.416,179.309,150.853
0.361,32.500,3.606,3.820,213.339,179.373,150.782
0.362,32.625,3.603,3.814,213.260,179.432,150.705
0.363,32.752,3.602,3.806,213.177,179.485,150.624
0.364,32.882,3.603,3.794,213.090,179.530,150.539
0.365,33.014,3.607,3.781,212.999,179.565,150.451
0.366,33.147,3.613,3.765,212.903,179.589,150.360
0.367,33.284,3.622,3.749,212.803,179.604,150.269
0.369,33.424,3.632,3.733,212.698,179.610,150.176
0.370,33.568,3.643,3.718,212.589,179.610,150.083
0.371,33.714,3.655,3.705,212.475,179.604,149.991
0.372,33.864,3.667,3.694,212.358,179.593,149.899
0.373,34.015,3.679,3.687,212.236,179.579,149.810
0.374,34.169,3.691,3.685,212.110,179.563,149.723
0.375,34.325,3.703,3.687,211.980,179.547,149.639
0.377,34.482,3.714,3.694,211.846,179.531,149.559
0.378,34.640,3.726,3.704,211.708,179.516,149.483
0.379,34.799,3.738,3.718,211.566,179.505,149.412
0.380,34.958,3.751,3.735,211.421,179.497,149.347
0.381,35.115,3.766,3.755,211.276,179.495,149.286
0.382,35.270,3.783,3.776,211.132,179.497,149.230
0.383,35.420,3.801,3.800,210.991,179.505,149.179
0.385,35.564,3.822,3.824,210.856,179.520,149.132
0.386,35.701,3.845,3.849,210.728,179.542,149.089
0.387,35.829,3.869,3.874,210.609,179.572,149.050
0.388,35.948,3.891,3.897,210.503,179.610,149.014
0.389,36.057,3.912,3.918,210.410,179.657,148.981
0.390,36.157,3.930,3.934,210.333,179.714,148.951
0.391,36.251,3.944,3.946,210.274,179.781,148.924
0.392,36.341,3.951,3.953,210.234,179.858,148.899
0.394,36.434,3.952,3.953,210.214,179.945,148.874
0.395,36.530,3.945,3.944,210.209,180.037,148.846
0.396,36.629,3.929,3.928,210.215,180.130,148.811
0.397,36.730,3.905,3.903,210.228,180.219,148.766
0.398,36.833,3.871,3.870,210.246,180.302,148.708
0.399,36.940,3.828,3.827,210.263,180.374,148.631
0.400,37.053,3.776,3.775,210.276,180.431,148.534
0.402,37.180,3.714,3.713,210.282,180.469,148.413
0.403,37.331,3.641,3.641,210.276,180.483,148.263
0.404,37.513,3.559,3.559,210.255,180.471,148.082
0.405,37.737,3.467,3.467,210.214,180.428,147.866
0.406,38.011,3.367,3.367,210.151,180.350,147.612
0.407,38.332,3.262,3.262,210.067,180.239,147.323
0.408,38.692,3.155,3.155,209.964,180.101,147.006
0.410,39.083,3.050,3.050,209.846,179.941,146.669
0.411,39.496,2.948,2.949,209.718,179.766,146.319
0.412,39.919,2.854,2.855,209.582,179.579,145.964
0.413,40.344,2.771,2.771,209.444,179.388,145.610
0.414,40.761,2.701,2.701,209.305,179.198,145.266
0.415,41.159,2.646,2.646,209.171,179.013,144.940
0.416,41.530,2.607,2.607,209.045,178.841,144.637
0.418,41.862,2.581,2.580,208.930,178.686,144.366
0.419,42.147,2.566,2.566,208.830,178.554,144.134
0.420,42.376,2.561,2.561,208.748,178.450,143.947
0.421,42.550,2.565,2.565,208.684,178.375,143.804
0.422,42.677,2.575,2.575,208.633,178.325,143.699
0.423,42.766,2.590,2.590,208.591,178.298,143.625
0.424,42.826,2.609,2.609,208.556,178.293,143.577
0.425,42.872,2.629,2.629,208.523,178.307,143.548
0.427,42.920,2.652,2.652,208.490,178.338,143.533
0.428,42.980,2.675,2.675,208.451,178.383,143.525
0.429,43.054,2.700,2.700,208.405,178.440,143.518
0.430,43.144,2.725,2.725,208.346,178.507,143.507
0.431,43.251,2.751,2.751,208.272,178.582,143.485
0.432,43.380,2.776,2.776,208.178,178.662,143.447
0.433,43.534,2.802,2.802,208.063,178.745,143.387
0.435,43.712,2.828,2.828,207.928,178.830,143.307
0.436,43.910,2.853,2.853,207.778,178.915,143.210
0.437,44.123,2.877,2.877,207.617,179.001,143.101
0.438,44.346,2.899,2.899,207.448,179.085,142.982
0.439,44.573,2.919,2.919,207.276,179.167,142.857
0.440,44.801,2.937,2.937,207.105,179.246,142.731
0.441,45.022,2.952,2.952,206.939,179.320,142.605
0.443,45.232,2.963,2.963,206.781,179.389,142.485
0.444,45.425,2.970,2.970,206.637,179.452,142.373
0.445,45.596,2.973,2.973,206.510,179.508,142.273
0.446,45.739,2.972,2.972,206.404,179.556,142.189
0.447,45.851,2.967,2.967,206.322,179.594,142.124
0.448,45.933,2.959,2.959,206.263,179.624,142.076
0.449,45.989,2.950,2.950,206.223,179.647,142.043
0.451,46.021,2.941,2.941,206.201,179.662,142.025
0.452,46.035,2.931,2.931,206.193,179.671,142.018
0.453,46.041,2.923,2.923,206.196,179.674,142.021
0.454,46.059,2.917,2.917,206.209,179.673,142.033
0.455,46.086,2.915,2.915,206.229,179.667,142.051
0.456,46.120,2.915,2.915,206.252,179.659,142.074
0.457,46.157,2.919,2.919,206.276,179.647,142.100
0.458,46.194,2.925,2.925,206.299,179.634,142.127
0.460,46.229,2.932,2.932,206.317,179.620,142.153
0.461,46.260,2.941,2.941,206.330,179.605,142.176
0.462,46.286,2.950,2.950,206.337,179.591,142.196
0.463,46.307,2.959,2.959,206.340,179.578,142.213
0.464,46.322,2.968,2.968,206.340,179.567,142.224
