"T","Distance","Radius","FreeRadius","X","Y","Z"
0.000,0.000,1.266,1.266,220.492,192.756,176.052
0.001,0.136,1.249,1.249,220.406,192.748,176.157
0.002,0.270,1.232,1.232,220.320,192.741,176.260
0.003,0.401,1.216,1.216,220.237,192.733,176.360
0.004,0.528,1.199,1.199,220.156,192.723,176.457
0.005,0.649,1.182,1.182,220.078,192.713,176.549
0.006,0.763,1.166,1.166,220.004,192.700,176.635
0.007,0.868,1.150,1.150,219.936,192.685,176.714
0.008,0.963,1.133,1.133,219.873,192.668,176.784
0.009,1.048,1.117,1.117,219.818,192.647,176.845
0.010,1.121,1.101,1.101,219.770,192.624,176.894
0.011,1.182,1.085,1.085,219.730,192.597,176.932
0.012,1.232,1.070,1.070,219.698,192.570,176.959
0.013,1.271,1.057,1.057,219.673,192.546,176.978
0.014,1.299,1.047,1.047,219.654,192.531,176.991
0.015,1.315,1.040,1.040,219.642,192.526,177.000
0.016,1.330,1.039,1.039,219.634,192.536,177.007
0.017,1.360,1.042,1.042,219.630,192.565,177.014
0.018,1.412,1.052,1.052,219.629,192.617,177.023
0.019,1.491,1.069,1.069,219.631,192.695,177.036
0.020,1.601,1.094,1.094,219.635,192.803,177.055
0.021,1.744,1.128,1.128,219.640,192.943,177.082
0.022,1.914,1.167,1.167,219.645,193.110,177.115
0.023,2.102,1.210,1.210,219.647,193.295,177.152
0.024,2.301,1.255,1.255,219.645,193.490,177.191
0.025,2.502,1.299,1.299,219.638,193.687,177.229
0.026,2.697,1.340,1.340,219.623,193.877,177.264
0.027,2.877,1.375,1.375,219.599,194.053,177.294
0.028,3.035,1.402,1.402,219.565,194.207,177.317
0.029,3.167,1.419,1.419,219.517,194.329,177.330
0.030,3.270,1.423,1.423,219.456,194.411,177.330
0.032,3.357,1.413,1.413,219.378,194.448,177.318
0.033,3.452,1.392,1.392,219.285,194.443,177.296
0.034,3.569,1.362,1.362,219.178,194.404,177.270
0.035,3.709,1.325,1.325,219.058,194.337,177.247
0.036,3.867,1.284,1.284,218.926,194.250,177.232
0.037,4.041,1.242,1.242,218.783,194.151,177.232
0.038,4.227,1.201,1.201,218.630,194.047,177.252
0.039,4.424,1.164,1.164,218.469,193.946,177.298
0.040,4.631,1.133,1.133,218.299,193.854,177.376
0.041,4.855,1.111,1.111,218.123,193.780,177.493
0.042,5.101,1.099,1.099,217.942,193.730,177.652
0.043,5.372,1.096,1.096,217.759,193.702,177.848
0.044,5.662,1.100,1.100,217.575,193.695,178.073
0.045,5.965,1.111,1.111,217.396,193.703,178.317
0.046,6.273,1.127,1.127,217.223,193.724,178.572
0.047,6.577,1.146,1.146,217.060,193.754,178.827
0.048,6.868,1.168,1.168,216.911,193.790,179.074
0.049,7.136,1.190,1.190,216.777,193.827,179.303
0.050,7.372,1.212,1.212,216.664,193.863,179.507
0.051,7.566,1.231,1.231,216.572,193.895,179.674
0.052,7.708,1.248,1.248,216.506,193.918,179.798
0.053,7.802,1.263,1.263,216.464,193.933,179.881
0.054,7.854,1.274,1.274,216.440,193.941,179.926
0.055,7.870,1.283,1.283,216.433,193.943,179.941
0.056,7.882,1.289,1.289,216.437,193.941,179.930
0.057,7.915,1.294,1.294,216.449,193.936,179.900
0.058,7.964,1.296,1.296,216.466,193.928,179.855
0.059,8.020,1.295,1.295,216.482,193.920,179.802
0.060,8.078,1.293,1.293,216.495,193.912,179.745
0.061,8.133,1.289,1.289,216.500,193.906,179.692
0.062,8.180,1.283,1.283,216.495,193.902,179.645
0.063,8.220,1.276,1.276,216.479,193.901,179.608
0.064,8.257,1.268,1.268,216.454,193.902,179.581
0.065,8.293,1.260,1.260,216.423,193.902,179.562
0.066,8.329,1.251,1.251,216.388,193.902,179.553
0.067,8.366,1.243,1.243,216.351,193.901,179.552
0.068,8.404,1.236,1.236,216.314,193.897,179.561
0.069,8.444,1.229,1.229,216.280,193.889,179.578
0.070,8.485,1.225,1.225,216.249,193.876,179.604
0.071,8.531,1.222,1.222,216.226,193.858,179.638
0.072,8.582,1.221,1.221,216.211,193.833,179.680
0.073,8.642,1.222,1.222,216.204,193.802,179.730
0.074,8.710,1.224,1.224,216.203,193.763,179.787
0.075,8.785,1.228,1.228,216.206,193.719,179.848
0.076,8.868,1.233,1.233,216.210,193.668,179.913
0.077,8.956,1.239,1.239,216.214,193.611,179.980
0.078,9.049,1.245,1.245,216.217,193.547,180.048
0.079,9.146,1.251,1.251,216.214,193.479,180.116
0.080,9.247,1.258,1.258,216.206,193.404,180.183
0.081,9.350,1.264,1.264,216.189,193.325,180.247
0.082,9.458,1.270,1.270,216.162,193.240,180.307
0.083,9.569,1.276,1.276,216.125,193.151,180.363
0.084,9.681,1.281,1.281,216.080,193.061,180.414
0.085,9.794,1.286,1.286,216.030,192.972,180.460
0.086,9.903,1.290,1.290,215.977,192.885,180.501
0.087,10.008,1.294,1.294,215.922,192.803,180.537
0.088,10.105,1.298,1.298,215.868,192.729,180.567
0.089,10.191,1.301,1.301,215.817,192.664,180.592
0.090,10.264,1.303,1.303,215.771,192.610,180.611
0.091,10.321,1.305,1.305,215.732,192.570,180.624
0.092,10.361,1.307,1.307,215.702,192.546,180.630
0.093,10.384,1.308,1.308,215.681,192.535,180.632
0.095,10.398,1.309,1.309,215.668,192.534,180.630
0.096,10.406,1.308,1.308,215.661,192.537,180.626
0.097,10.413,1.308,1.308,215.660,192.541,180.621
0.098,10.417,1.306,1.306,215.662,192.541,180.618
0.099,10.427,1.304,1.304,215.666,192.532,180.617
0.100,10.449,1.301,1.301,215.672,192.511,180.620
0.101,10.490,1.298,1.298,215.677,192.471,180.629
0.102,10.553,1.293,1.293,215.681,192.410,180.645
0.103,10.644,1.289,1.289,215.681,192.323,180.670
0.104,10.762,1.285,1.285,215.677,192.210,180.703
0.105,10.900,1.283,1.283,215.665,192.078,180.742
0.106,11.055,1.284,1.284,215.643,191.930,180.785
0.107,11.222,1.289,1.289,215.608,191.774,180.831
0.108,11.397,1.299,1.299,215.558,191.613,180.877
0.109,11.575,1.314,1.314,215.490,191.454,180.921
0.110,11.757,1.337,1.337,215.402,191.300,180.961
0.111,11.940,1.368,1.368,215.291,191.159,180.995
0.112,12.127,1.407,1.407,215.154,191.034,181.021
0.113,12.321,1.454,1.454,214.990,190.932,181.037
0.114,12.527,1.509,1.509,214.800,190.852,181.043
0.115,12.746,1.569,1.569,214.590,190.793,181.040
0.116,12.974,1.633,1.633,214.366,190.751,181.030
0.117,13.207,1.700,1.700,214.134,190.725,181.013
0.118,13.441,1.768,1.768,213.901,190.711,180.992
0.119,13.671,1.835,1.835,213.673,190.707,180.967
0.120,13.891,1.901,1.901,213.455,190.710,180.941
0.121,14.095,1.964,1.964,213.253,190.717,180.914
0.122,14.276,2.023,2.023,213.074,190.726,180.887
0.123,14.428,2.077,2.077,212.924,190.734,180.862
0.124,14.550,2.125,2.125,212.804,190.741,180.841
0.125,14.644,2.167,2.167,212.712,190.746,180.822
0.126,14.713,2.203,2.203,212.645,190.750,180.807
0.127,14.759,2.233,2.233,212.600,190.754,180.796
0.128,14.785,2.256,2.256,212.576,190.758,180.788
0.129,14.795,2.271,2.271,212.569,190.763,180.785
0.130,14.805,2.279,2.279,212.576,190.769,180.787
0.131,14.827,2.280,2.280,212.595,190.778,180.794
0.132,14.860,2.272,2.272,212.624,190.788,180.805
0.133,14.902,2.258,2.258,212.660,190.802,180.823
0.134,14.949,2.241,2.241,212.699,190.819,180.844
0.135,14.997,2.224,2.224,212.737,190.838,180.866
0.136,15.041,2.210,2.210,212.770,190.858,180.887
0.137,15.076,2.201,2.201,212.794,190.880,180.902
0.138,15.101,2.201,2.201,212.803,190.901,180.909
0.139,15.123,2.213,2.213,212.795,190.921,180.904
0.140,15.164,2.239,2.239,212.764,190.940,180.885
0.141,15.235,2.282,2.282,212.707,190.957,180.847
0.142,15.341,2.345,2.345,212.618,190.971,180.790
0.143,15.490,2.425,2.425,212.495,190.981,180.708
0.144,15.680,2.519,2.519,212.337,190.987,180.602
0.145,15.902,2.621,2.621,212.152,190.991,180.479
0.146,16.148,2.729,2.729,211.948,190.993,180.341
0.147,16.409,2.838,2.838,211.732,190.994,180.195
0.148,16.676,2.945,2.945,211.511,190.997,180.045
0.149,16.939,3.044,3.044,211.294,191.000,179.896
0.150,17.190,3.133,3.133,211.087,191.007,179.753
0.151,17.420,3.207,3.207,210.899,191.017,179.622
0.152,17.620,3.263,3.263,210.737,191.031,179.507
0.153,17.781,3.302,3.302,210.608,191.052,179.413
0.154,17.901,3.327,3.327,210.514,191.078,179.342
0.155,17.988,3.340,3.340,210.452,191.108,179.289
0.157,18.050,3.344,3.344,210.416,191.140,179.249
0.158,18.096,3.342,3.342,210.402,191.173,179.220
0.159,18.136,3.337,3.337,210.405,191.204,179.196
0.160,18.174,3.330,3.330,210.419,191.231,179.173
0.161,18.215,3.325,3.325,210.440,191.253,179.146
0.162,18.259,3.324,3.324,210.464,191.268,179.113
0.163,18.310,3.330,3.330,210.485,191.275,179.067
0.164,18.373,3.341,3.341,210.499,191.270,179.005
0.165,18.454,3.357,3.357,210.502,191.255,178.926
0.166,18.550,3.376,3.376,210.497,191.229,178.833
0.167,18.660,3.396,3.396,210.484,191.195,178.729
0.168,18.779,3.418,3.418,210.465,191.154,178.619
0.169,18.904,3.438,3.438,210.441,191.107,178.506
0.170,19.031,3.457,3.457,210.413,191.057,178.393
0.171,19.155,3.472,3.472,210.383,191.004,178.285
0.172,19.273,3.483,3.483,210.352,190.950,178.184
0.173,19.382,3.489,3.489,210.321,190.896,178.095
0.174,19.477,3.489,3.489,210.292,190.844,178.022
0.175,19.556,3.486,3.486,210.265,190.795,177.965
0.176,19.622,3.479,3.479,210.243,190.748,177.924
0.177,19.678,3.470,3.470,210.227,190.701,177.898
0.178,19.726,3.459,3.459,210.218,190.655,177.886
0.179,19.773,3.448,3.448,210.218,190.609,177.884
0.180,19.822,3.437,3.437,210.228,190.561,177.894
0.181,19.880,3.426,3.426,210.250,190.512,177.912
0.182,19.948,3.418,3.418,210.285,190.459,177.938
0.183,20.030,3.411,3.411,210.335,190.403,177.970
0.184,20.126,3.407,3.407,210.401,190.343,178.008
0.185,20.238,3.402,3.402,210.481,190.277,178.047
0.186,20.357,3.398,3.398,210.569,190.205,178.085
0.187,20.479,3.392,3.392,210.657,190.127,178.116
0.188,20.598,3.384,3.384,210.737,190.041,178.136
0.189,20.712,3.373,3.373,210.803,189.947,178.140
0.190,20.825,3.357,3.357,210.845,189.844,178.124
0.191,20.945,3.337,3.337,210.856,189.731,178.084
0.192,21.089,3.311,3.311,210.830,189.608,178.014
0.193,21.274,3.278,3.278,210.758,189.473,177.911
0.194,21.514,3.242,3.242,210.633,189.327,177.769
0.195,21.814,3.203,3.203,210.452,189.168,177.588
0.196,22.166,3.164,3.164,210.226,189.002,177.375
0.197,22.557,3.128,3.128,209.965,188.832,177.139
0.198,22.973,3.096,3.096,209.679,188.663,176.888
0.199,23.401,3.071,3.071,209.381,188.497,176.631
0.200,23.825,3.055,3.055,209.080,188.340,176.376
0.201,24.233,3.050,3.050,208.788,188.194,176.131
0.202,24.610,3.058,3.058,208.516,188.065,175.905
0.203,24.942,3.080,3.080,208.274,187.956,175.705
0.204,25.214,3.114,3.114,208.074,187.872,175.542
0.205,25.420,3.157,3.157,207.921,187.813,175.418
0.206,25.565,3.207,3.207,207.810,187.777,175.330
0.207,25.660,3.262,3.262,207.736,187.761,175.273
0.208,25.715,3.318,3.318,207.691,187.761,175.242
0.209,25.743,3.374,3.374,207.669,187.773,175.230
0.210,25.765,3.426,3.426,207.663,187.795,175.234
0.211,25.794,3.473,3.473,207.667,187.821,175.247
0.212,25.828,3.512,3.512,207.675,187.849,175.264
0.213,25.859,3.540,3.540,207.679,187.875,175.280
0.214,25.883,3.560,3.560,207.673,187.896,175.290
0.215,25.906,3.570,3.570,207.652,187.908,175.289
0.216,25.941,3.572,3.572,207.619,187.911,175.282
0.217,25.988,3.567,3.567,207.574,187.903,175.269
0.218,26.048,3.554,3.554,207.519,187.884,175.254
0.220,26.118,3.534,3.534,207.458,187.852,175.241
0.221,26.200,3.508,3.508,207.390,187.808,175.231
0.222,26.292,3.477,3.477,207.320,187.749,175.228
0.223,26.395,3.440,3.440,207.247,187.675,175.235
0.224,26.512,3.399,3.399,207.175,187.586,175.254
0.225,26.644,3.355,3.355,207.105,187.479,175.289
0.226,26.792,3.309,3.309,207.039,187.357,175.340
0.227,26.954,3.263,3.263,206.977,187.222,175.405
0.228,27.126,3.216,3.216,206.919,187.080,175.481
0.229,27.301,3.172,3.172,206.864,186.936,175.564
0.230,27.474,3.131,3.131,206.814,186.794,175.650
0.231,27.640,3.093,3.093,206.766,186.660,175.735
0.232,27.792,3.061,3.061,206.722,186.539,175.817
0.233,27.926,3.036,3.036,206.682,186.436,175.892
0.234,28.036,3.018,3.018,206.644,186.354,175.955
0.235,28.116,3.004,3.004,206.610,186.301,176.004
0.236,28.166,2.994,2.994,206.579,186.277,176.036
0.237,28.200,2.986,2.986,206.551,186.274,176.054
0.238,28.226,2.978,2.978,206.527,186.283,176.061
0.239,28.249,2.969,2.969,206.507,186.294,176.062
0.240,28.266,2.957,2.957,206.491,186.297,176.059
0.241,28.285,2.940,2.940,206.480,186.281,176.056
0.242,28.329,2.917,2.917,206.474,186.238,176.057
0.243,28.411,2.886,2.886,206.472,186.156,176.065
0.244,28.542,2.848,2.848,206.477,186.027,176.085
0.245,28.733,2.805,2.805,206.487,185.839,176.119
0.246,28.990,2.759,2.759,206.502,185.588,176.171
0.247,29.303,2.714,2.714,206.518,185.282,176.239
0.248,29.661,2.672,2.672,206.530,184.936,176.324
0.249,30.049,2.636,2.636,206.533,184.561,176.424
0.250,30.455,2.607,2.607,206.521,184.171,176.538
0.251,30.868,2.590,2.590,206.490,183.779,176.665
0.252,31.278,2.586,2.586,206.434,183.398,176.804
0.253,31.675,2.599,2.599,206.349,183.041,176.955
0.254,32.052,2.627,2.627,206.229,182.721,177.115
0.255,32.408,2.669,2.669,206.068,182.451,177.284
0.256,32.750,2.723,2.723,205.866,182.242,177.461
0.257,33.086,2.784,2.784,205.627,182.088,177.643
0.258,33.425,2.852,2.852,205.363,181.982,177.826
0.259,33.765,2.924,2.924,205.083,181.915,178.007
0.260,34.102,2.997,2.997,204.797,181.881,178.182
0.261,34.430,3.068,3.068,204.515,181.870,178.348
0.262,34.739,3.135,3.135,204.247,181.876,178.502
0.263,35.021,3.196,3.196,204.001,181.889,178.641
0.264,35.265,3.250,3.250,203.789,181.903,178.760
0.265,35.460,3.297,3.297,203.620,181.909,178.857
0.266,35.599,3.339,3.339,203.501,181.900,178.929
0.267,35.690,3.376,3.376,203.427,181.876,178.977
0.268,35.749,3.408,3.408,203.388,181.839,179.002
0.269,35.800,3.437,3.437,203.376,181.791,179.007
0.270,35.859,3.463,3.463,203.380,181.733,178.994
0.271,35.932,3.487,3.487,203.391,181.667,178.965
0.272,36.017,3.509,3.509,203.400,181.594,178.922
0.273,36.112,3.530,3.530,203.398,181.517,178.867
0.274,36.219,3.551,3.551,203.375,181.436,178.802
0.275,36.341,3.571,3.571,203.323,181.354,178.728
0.276,36.486,3.589,3.589,203.232,181.272,178.649
0.277,36.657,3.606,3.606,203.107,181.191,178.567
0.278,36.850,3.620,3.620,202.951,181.111,178.485
0.279,37.062,3.632,3.631,202.770,181.034,178.406
0.280,37.287,3.640,3.640,202.571,180.960,178.334
0.282,37.520,3.646,3.646,202.357,180.890,178.271
0.283,37.757,3.648,3.648,202.134,180.825,178.220
0.284,37.994,3.646,3.646,201.908,180.765,178.186
0.285,38.224,3.640,3.640,201.685,180.710,178.171
0.286,38.446,3.631,3.631,201.468,180.663,178.177
0.287,38.656,3.618,3.619,201.264,180.623,178.209
0.288,38.859,3.604,3.604,201.072,180.587,178.263
0.289,39.059,3.587,3.588,200.890,180.550,178.337
0.290,39.260,3.569,3.570,200.716,180.510,178.427
0.291,39.463,3.550,3.550,200.548,180.462,178.531
0.292,39.671,3.530,3.530,200.384,180.402,178.646
0.293,39.887,3.510,3.510,200.224,180.325,178.767
0.294,40.112,3.490,3.490,200.063,180.228,178.892
0.295,40.350,3.471,3.470,199.902,180.107,179.019
0.296,40.605,3.454,3.453,199.737,179.958,179.142
0.297,40.880,3.438,3.437,199.568,179.777,179.261
0.298,41.173,3.426,3.424,199.395,179.568,179.373
0.299,41.479,3.416,3.414,199.223,179.338,179.479
0.300,41.793,3.411,3.409,199.054,179.093,179.579
0.301,42.109,3.410,3.408,198.890,178.839,179.673
0.302,42.420,3.414,3.413,198.736,178.584,179.761
0.303,42.720,3.424,3.424,198.594,178.333,179.842
0.304,43.001,3.440,3.441,198.467,178.093,179.917
0.305,43.258,3.462,3.465,198.358,177.871,179.986
0.306,43.484,3.488,3.493,198.270,177.672,180.049
0.307,43.674,3.518,3.524,198.205,177.504,180.105
0.308,43.829,3.551,3.557,198.163,177.363,180.155
0.309,43.957,3.584,3.592,198.138,177.244,180.196
0.310,44.063,3.618,3.625,198.128,177.143,180.228
0.311,44.155,3.651,3.657,198.128,177.054,180.250
0.312,44.238,3.682,3.686,198.135,176.972,180.261
0.313,44.320,3.710,3.710,198.146,176.891,180.260
0.314,44.405,3.734,3.729,198.156,176.807,180.246
0.315,44.503,3.754,3.743,198.162,176.714,180.218
0.316,44.618,3.770,3.754,198.159,176.607,180.175
0.317,44.758,3.783,3.761,198.146,176.481,180.116
0.318,44.921,3.793,3.767,198.120,176.337,180.044
0.319,45.102,3.801,3.773,198.083,176.179,179.964
0.320,45.295,3.806,3.779,198.035,176.011,179.882
0.321,45.496,3.809,3.786,197.977,175.837,179.801
0.322,45.699,3.811,3.796,197.909,175.660,179.727
0.323,45.900,3.811,3.810,197.832,175.485,179.665
0.324,46.096,3.810,3.828,197.747,175.314,179.620
0.325,46.283,3.808,3.849,197.655,175.154,179.596
0.326,46.461,3.806,3.874,197.556,175.006,179.598
0.327,46.633,3.805,3.900,197.450,174.874,179.632
0.328,46.803,3.805,3.927,197.340,174.761,179.693
0.329,46.974,3.807,3.954,197.228,174.663,179.778
0.330,47.146,3.811,3.980,197.115,174.581,179.878
0.331,47.316,3.817,4.003,197.005,174.513,179.989
0.332,47.481,3.826,4.023,196.900,174.458,180.104
0.333,47.637,3.839,4.039,196.801,174.416,180.216
0.334,47.778,3.856,4.050,196.711,174.385,180.321
0.335,47.899,3.876,4.055,196.633,174.363,180.410
0.336,47.994,3.897,4.056,196.568,174.351,180.479
0.337,48.059,3.918,4.053,196.519,174.347,180.522
0.338,48.098,3.937,4.046,196.484,174.348,180.538
0.339,48.122,3.953,4.034,196.461,174.352,180.532
0.340,48.152,3.965,4.020,196.445,174.355,180.507
0.341,48.193,3.971,4.002,196.435,174.354,180.467
0.342,48.245,3.969,3.981,196.427,174.346,180.416
0.343,48.306,3.959,3.958,196.418,174.327,180.358
0.345,48.377,3.939,3.933,196.404,174.296,180.297
0.346,48.457,3.910,3.905,196.383,174.247,180.237
0.347,48.551,3.875,3.877,196.351,174.179,180.181
0.348,48.663,3.834,3.847,196.305,174.088,180.133
0.349,48.795,3.791,3.818,196.246,173.977,180.094
0.350,48.944,3.745,3.788,196.177,173.848,180.064
0.351,49.105,3.699,3.758,196.100,173.709,180.043
0.352,49.273,3.655,3.730,196.018,173.562,180.028
0.353,49.443,3.614,3.703,195.935,173.414,180.021
0.354,49.610,3.577,3.677,195.852,173.269,180.019
0.355,49.768,3.547,3.654,195.774,173.132,180.023
0.356,49.912,3.521,3.632,195.701,173.008,180.032
0.357,50.036,3.499,3.610,195.639,172.902,180.045
0.358,50.136,3.480,3.589,195.589,172.817,180.061
0.359,50.212,3.462,3.566,195.550,172.755,180.079
0.360,50.270,3.445,3.542,195.518,172.708,180.097
0.361,50.317,3.426,3.516,195.491,172.674,180.112
0.362,50.358,3.406,3.487,195.464,172.646,180.124
0.363,50.399,3.382,3.454,195.433,172.619,180.128
0.364,50.447,3.354,3.416,195.396,172.589,180.124
0.365,50.512,3.322,3.374,195.347,172.550,180.109
0.366,50.599,3.285,3.328,195.283,172.497,180.082
0.367,50.716,3.245,3.280,195.200,172.425,180.040
0.368,50.869,3.204,3.231,195.096,172.330,179.980
0.369,51.058,3.163,3.183,194.970,172.211,179.905
0.370,51.273,3.123,3.136,194.829,172.075,179.818
0.371,51.507,3.084,3.093,194.677,171.925,179.722
0.372,51.750,3.050,3.054,194.519,171.769,179.622
0.373,51.995,3.019,3.022,194.361,171.611,179.522
0.374,52.233,2.994,2.996,194.209,171.456,179.425
0.375,52.455,2.976,2.978,194.068,171.310,179.335
0.376,52.653,2.963,2.968,193.942,171.179,179.256
0.377,52.819,2.955,2.963,193.837,171.068,179.192
0.378,52.944,2.951,2.963,193.759,170.981,179.147
0.379,53.027,2.951,2.966,193.708,170.920,179.121
0.380,53.078,2.953,2.972,193.679,170.880,179.112
0.381,53.106,2.957,2.979,193.667,170.855,179.118
0.382,53.128,2.963,2.987,193.669,170.842,179.136
0.383,53.159,2.968,2.994,193.679,170.834,179.164
0.384,53.198,2.974,2.999,193.693,170.828,179.199
0.385,53.241,2.979,3.002,193.706,170.818,179.240
0.386,53.289,2.983,3.002,193.713,170.799,179.283
0.387,53.343,2.986,3.002,193.710,170.767,179.326
0.388,53.410,2.990,3.001,193.693,170.717,179.367
0.389,53.496,2.994,3.000,193.660,170.647,179.405
0.390,53.598,2.998,3.001,193.614,170.562,179.440
0.391,53.714,3.002,3.002,193.560,170.466,179.473
0.392,53.838,3.008,3.006,193.501,170.362,179.505
0.393,53.965,3.014,3.012,193.440,170.254,179.535
0.394,54.092,3.021,3.023,193.381,170.146,179.565
0.395,54.213,3.030,3.036,193.327,170.042,179.595
0.396,54.324,3.040,3.053,193.281,169.945,179.626
0.397,54.420,3.051,3.071,193.249,169.860,179.658
0.398,54.500,3.062,3.091,193.232,169.791,179.692
0.399,54.564,3.074,3.111,193.231,169.737,179.727
0.400,54.620,3.085,3.131,193.243,169.698,179.765
0.401,54.673,3.097,3.150,193.263,169.668,179.804
0.402,54.724,3.109,3.168,193.287,169.645,179.843
0.403,54.775,3.120,3.182,193.313,169.627,179.883
0.404,54.824,3.131,3.194,193.335,169.610,179.923
0.405,54.871,3.141,3.202,193.350,169.591,179.964
0.407,54.917,3.150,3.207,193.354,169.567,180.003
0.408,54.969,3.160,3.210,193.342,169.534,180.041
0.409,55.033,3.169,3.213,193.312,169.491,180.078
0.410,55.116,3.179,3.214,193.263,169.435,180.114
0.411,55.215,3.190,3.216,193.196,169.370,180.147
0.412,55.326,3.202,3.220,193.118,169.298,180.179
0.413,55.446,3.215,3.225,193.031,169.221,180.208
0.414,55.570,3.230,3.232,192.939,169.142,180.235
