"T","Distance","Radius","FreeRadius","X","Y","Z"
0.000,0.000,0.948,0.948,-76.253,-54.312,-5.644
0.002,0.094,0.928,0.928,-76.262,-54.319,-5.737
0.003,0.188,0.911,0.911,-76.272,-54.327,-5.830
0.005,0.281,0.900,0.900,-76.280,-54.339,-5.923
0.007,0.375,0.897,0.897,-76.287,-54.354,-6.014
0.009,0.469,0.905,0.905,-76.292,-54.376,-6.106
0.010,0.564,0.927,0.927,-76.295,-54.406,-6.196
0.012,0.661,0.964,0.964,-76.294,-54.445,-6.285
0.014,0.762,1.011,1.011,-76.291,-54.494,-6.373
0.016,0.868,1.064,1.064,-76.284,-54.555,-6.459
0.017,0.981,1.117,1.117,-76.272,-54.630,-6.544
0.019,1.104,1.165,1.165,-76.256,-54.719,-6.627
0.021,1.235,1.204,1.204,-76.235,-54.820,-6.707
0.023,1.370,1.231,1.231,-76.212,-54.930,-6.783
0.024,1.508,1.248,1.248,-76.185,-55.044,-6.855
0.026,1.644,1.260,1.260,-76.157,-55.159,-6.922
0.028,1.775,1.267,1.267,-76.128,-55.271,-6.983
0.030,1.897,1.273,1.273,-76.099,-55.377,-7.037
0.031,2.008,1.280,1.280,-76.070,-55.473,-7.083
0.033,2.102,1.290,1.290,-76.042,-55.555,-7.120
0.035,2.177,1.301,1.301,-76.017,-55.620,-7.148
0.036,2.230,1.312,1.312,-75.994,-55.664,-7.166
0.038,2.265,1.324,1.324,-75.973,-55.691,-7.177
0.040,2.289,1.334,1.334,-75.954,-55.703,-7.184
0.042,2.308,1.342,1.342,-75.936,-55.705,-7.190
0.043,2.329,1.348,1.348,-75.918,-55.703,-7.201
0.045,2.355,1.352,1.352,-75.900,-55.700,-7.219
0.047,2.390,1.354,1.354,-75.880,-55.700,-7.248
0.049,2.441,1.353,1.353,-75.858,-55.709,-7.293
0.050,2.512,1.351,1.351,-75.833,-55.730,-7.356
0.052,2.610,1.347,1.347,-75.805,-55.768,-7.442
0.054,2.740,1.346,1.346,-75.772,-55.826,-7.553
0.056,2.901,1.354,1.354,-75.736,-55.906,-7.689
0.057,3.086,1.376,1.376,-75.700,-56.001,-7.843
0.059,3.288,1.418,1.418,-75.664,-56.110,-8.010
0.061,3.502,1.485,1.485,-75.632,-56.228,-8.185
0.063,3.720,1.580,1.580,-75.606,-56.351,-8.362
0.064,3.936,1.691,1.691,-75.587,-56.477,-8.537
0.066,4.144,1.807,1.807,-75.578,-56.602,-8.704
0.068,4.338,1.915,1.915,-75.581,-56.721,-8.857
0.069,4.512,2.002,2.002,-75.599,-56.831,-8.991
0.071,4.664,2.056,2.056,-75.632,-56.929,-9.101
0.073,4.794,2.073,2.073,-75.682,-57.014,-9.186
0.075,4.909,2.062,2.062,-75.745,-57.087,-9.249
0.076,5.016,2.035,2.035,-75.819,-57.150,-9.293
0.078,5.118,2.005,2.005,-75.903,-57.203,-9.319
0.080,5.220,1.983,1.983,-75.993,-57.248,-9.332
0.082,5.322,1.980,1.980,-76.089,-57.285,-9.334
0.083,5.425,1.998,1.998,-76.186,-57.317,-9.326
0.085,5.528,2.029,2.029,-76.284,-57.345,-9.313
0.087,5.627,2.064,2.064,-76.379,-57.370,-9.297
0.089,5.723,2.094,2.094,-76.470,-57.392,-9.280
0.090,5.813,2.111,2.111,-76.556,-57.413,-9.263
0.092,5.899,2.104,2.104,-76.639,-57.433,-9.246
0.094,5.983,2.076,2.076,-76.719,-57.451,-9.228
0.095,6.066,2.033,2.033,-76.797,-57.467,-9.209
0.097,6.149,1.979,1.979,-76.876,-57.482,-9.186
0.099,6.234,1.923,1.923,-76.956,-57.494,-9.161
0.101,6.322,1.869,1.869,-77.038,-57.505,-9.131
0.102,6.415,1.825,1.825,-77.124,-57.514,-9.096
0.104,6.514,1.790,1.790,-77.214,-57.520,-9.055
0.106,6.622,1.764,1.764,-77.311,-57.524,-9.008
0.108,6.738,1.746,1.746,-77.414,-57.526,-8.955
0.109,6.860,1.734,1.734,-77.521,-57.526,-8.897
0.111,6.984,1.728,1.728,-77.629,-57.524,-8.836
0.113,7.108,1.726,1.726,-77.736,-57.521,-8.774
0.115,7.229,1.728,1.728,-77.841,-57.518,-8.713
0.116,7.344,1.733,1.733,-77.940,-57.514,-8.655
0.118,7.450,1.738,1.738,-78.032,-57.510,-8.601
0.120,7.545,1.745,1.745,-78.114,-57.507,-8.554
0.122,7.625,1.750,1.750,-78.184,-57.504,-8.515
0.123,7.688,1.755,1.755,-78.240,-57.503,-8.485
0.125,7.733,1.757,1.757,-78.280,-57.502,-8.467
0.127,7.762,1.758,1.758,-78.308,-57.503,-8.457
0.128,7.780,1.756,1.756,-78.325,-57.503,-8.453
0.130,7.789,1.752,1.752,-78.334,-57.503,-8.455
0.132,7.795,1.745,1.745,-78.337,-57.502,-8.460
0.134,7.802,1.736,1.736,-78.337,-57.499,-8.467
0.135,7.809,1.727,1.727,-78.336,-57.494,-8.472
0.137,7.818,1.722,1.722,-78.337,-57.486,-8.475
0.139,7.830,1.723,1.723,-78.341,-57.475,-8.473
0.141,7.851,1.732,1.732,-78.352,-57.459,-8.465
0.142,7.882,1.753,1.753,-78.370,-57.440,-8.449
0.144,7.923,1.782,1.782,-78.395,-57.416,-8.427
0.146,7.972,1.817,1.817,-78.426,-57.390,-8.399
0.148,8.028,1.851,1.851,-78.461,-57.361,-8.367
0.149,8.087,1.881,1.881,-78.498,-57.330,-8.332
0.151,8.149,1.900,1.900,-78.537,-57.298,-8.295
0.153,8.211,1.904,1.904,-78.575,-57.266,-8.259
0.155,8.272,1.895,1.895,-78.612,-57.234,-8.223
0.156,8.329,1.876,1.876,-78.647,-57.203,-8.190
0.158,8.381,1.851,1.851,-78.677,-57.173,-8.160
0.160,8.426,1.824,1.824,-78.702,-57.146,-8.134
0.161,8.467,1.798,1.798,-78.725,-57.121,-8.111
0.163,8.508,1.777,1.777,-78.748,-57.097,-8.088
0.165,8.550,1.760,1.760,-78.774,-57.074,-8.062
0.167,8.599,1.744,1.744,-78.805,-57.052,-8.033
0.168,8.657,1.726,1.726,-78.845,-57.031,-7.996
0.170,8.728,1.706,1.706,-78.895,-57.009,-7.951
0.172,8.816,1.679,1.679,-78.960,-56.987,-7.895
0.174,8.925,1.646,1.646,-79.041,-56.965,-7.826
0.175,9.059,1.607,1.607,-79.142,-56.942,-7.741
0.177,9.220,1.564,1.564,-79.263,-56.917,-7.639
0.179,9.403,1.520,1.520,-79.403,-56.891,-7.523
0.181,9.603,1.476,1.476,-79.558,-56.863,-7.400
0.182,9.814,1.436,1.436,-79.724,-56.833,-7.273
0.184,10.031,1.399,1.399,-79.898,-56.800,-7.148
0.186,10.247,1.367,1.367,-80.075,-56.764,-7.029
0.188,10.458,1.338,1.338,-80.252,-56.726,-6.921
0.189,10.658,1.312,1.312,-80.425,-56.684,-6.830
0.191,10.843,1.290,1.290,-80.590,-56.638,-6.760
0.193,11.011,1.269,1.269,-80.745,-56.588,-6.716
0.194,11.161,1.252,1.252,-80.884,-56.535,-6.702
0.196,11.300,1.239,1.239,-81.009,-56.477,-6.717
0.198,11.433,1.232,1.232,-81.121,-56.416,-6.754
0.200,11.564,1.232,1.232,-81.222,-56.352,-6.810
0.201,11.696,1.240,1.240,-81.313,-56.286,-6.879
0.203,11.828,1.258,1.258,-81.395,-56.218,-6.958
0.205,11.960,1.284,1.284,-81.469,-56.148,-7.040
0.207,12.088,1.315,1.315,-81.539,-56.077,-7.122
0.208,12.212,1.348,1.348,-81.604,-56.006,-7.199
0.210,12.327,1.379,1.379,-81.666,-55.935,-7.265
0.212,12.434,1.405,1.405,-81.727,-55.864,-7.317
0.214,12.534,1.424,1.424,-81.787,-55.793,-7.355
0.215,12.629,1.435,1.435,-81.846,-55.723,-7.379
0.217,12.721,1.438,1.438,-81.904,-55.653,-7.391
0.219,12.811,1.434,1.434,-81.961,-55.583,-7.394
0.220,12.900,1.424,1.424,-82.016,-55.514,-7.389
0.222,12.989,1.407,1.407,-82.070,-55.444,-7.378
0.224,13.077,1.386,1.386,-82.123,-55.375,-7.361
0.226,13.165,1.362,1.362,-82.174,-55.306,-7.342
0.227,13.253,1.337,1.337,-82.224,-55.237,-7.322
0.229,13.340,1.314,1.314,-82.272,-55.167,-7.302
0.231,13.426,1.294,1.294,-82.318,-55.097,-7.283
0.233,13.512,1.281,1.281,-82.362,-55.026,-7.262
0.234,13.599,1.275,1.275,-82.404,-54.953,-7.239
0.236,13.689,1.275,1.275,-82.443,-54.877,-7.212
0.238,13.782,1.282,1.282,-82.479,-54.798,-7.180
0.240,13.879,1.292,1.292,-82.512,-54.714,-7.142
0.241,13.983,1.306,1.306,-82.541,-54.626,-7.095
0.243,14.094,1.322,1.322,-82.567,-54.533,-7.040
0.245,14.216,1.339,1.339,-82.589,-54.433,-6.974
0.247,14.348,1.359,1.359,-82.607,-54.327,-6.897
0.248,14.492,1.382,1.382,-82.621,-54.215,-6.808
0.250,14.642,1.408,1.408,-82.632,-54.101,-6.712
0.252,14.796,1.438,1.438,-82.639,-53.986,-6.610
0.253,14.949,1.472,1.472,-82.645,-53.873,-6.505
0.255,15.099,1.511,1.511,-82.649,-53.766,-6.401
0.257,15.240,1.551,1.551,-82.651,-53.667,-6.301
0.259,15.370,1.592,1.592,-82.653,-53.578,-6.206
0.260,15.484,1.632,1.632,-82.655,-53.503,-6.120
0.262,15.579,1.668,1.668,-82.658,-53.444,-6.045
0.264,15.652,1.699,1.699,-82.662,-53.404,-5.985
0.266,15.702,1.724,1.724,-82.667,-53.382,-5.940
0.267,15.737,1.743,1.743,-82.675,-53.374,-5.907
0.269,15.761,1.756,1.756,-82.685,-53.375,-5.885
0.271,15.782,1.761,1.761,-82.699,-53.380,-5.870
0.273,15.803,1.759,1.759,-82.717,-53.385,-5.861
0.274,15.826,1.749,1.749,-82.739,-53.384,-5.854
0.276,15.856,1.734,1.734,-82.766,-53.374,-5.848
0.278,15.898,1.717,1.717,-82.799,-53.349,-5.840
0.280,15.958,1.700,1.700,-82.838,-53.305,-5.828
0.281,16.043,1.686,1.686,-82.884,-53.236,-5.808
0.283,16.154,1.678,1.678,-82.936,-53.142,-5.781
0.285,16.287,1.678,1.678,-82.994,-53.026,-5.747
0.286,16.439,1.685,1.685,-83.056,-52.894,-5.708
0.288,16.605,1.697,1.697,-83.122,-52.748,-5.665
0.290,16.779,1.714,1.714,-83.190,-52.594,-5.620
0.292,16.958,1.732,1.732,-83.259,-52.436,-5.574
0.293,17.136,1.751,1.751,-83.329,-52.278,-5.529
0.295,17.310,1.771,1.771,-83.397,-52.124,-5.486
0.297,17.473,1.790,1.790,-83.464,-51.980,-5.446
0.299,17.622,1.811,1.811,-83.527,-51.850,-5.411
0.300,17.754,1.833,1.833,-83.586,-51.736,-5.382
0.302,17.869,1.857,1.857,-83.642,-51.639,-5.359
0.304,17.966,1.884,1.884,-83.695,-51.559,-5.342
0.306,18.047,1.912,1.912,-83.744,-51.496,-5.330
0.307,18.112,1.939,1.939,-83.791,-51.451,-5.322
0.309,18.164,1.962,1.962,-83.835,-51.423,-5.320
0.311,18.207,1.978,1.978,-83.877,-51.413,-5.323
0.313,18.248,1.985,1.985,-83.916,-51.420,-5.329
0.314,18.295,1.979,1.979,-83.954,-51.445,-5.340
0.316,18.353,1.961,1.961,-83.991,-51.488,-5.355
0.318,18.425,1.934,1.934,-84.027,-51.548,-5.374
0.319,18.510,1.901,1.901,-84.064,-51.621,-5.396
0.321,18.606,1.864,1.864,-84.106,-51.703,-5.423
0.323,18.711,1.825,1.825,-84.154,-51.791,-5.454
0.325,18.823,1.788,1.788,-84.213,-51.880,-5.489
0.326,18.941,1.754,1.754,-84.283,-51.966,-5.529
0.328,19.066,1.727,1.727,-84.369,-52.044,-5.574
0.330,19.199,1.707,1.707,-84.472,-52.112,-5.624
0.332,19.344,1.699,1.699,-84.595,-52.165,-5.679
0.333,19.505,1.702,1.702,-84.741,-52.198,-5.740
0.335,19.687,1.720,1.720,-84.910,-52.209,-5.805
0.337,19.889,1.752,1.752,-85.100,-52.200,-5.875
0.339,20.105,1.795,1.795,-85.302,-52.176,-5.945
0.340,20.329,1.848,1.848,-85.512,-52.140,-6.015
0.342,20.554,1.910,1.910,-85.722,-52.095,-6.083
0.344,20.775,1.979,1.979,-85.928,-52.046,-6.145
0.345,20.983,2.053,2.053,-86.122,-51.996,-6.201
0.347,21.172,2.128,2.128,-86.299,-51.950,-6.248
0.349,21.335,2.197,2.197,-86.453,-51.910,-6.283
0.351,21.464,2.258,2.258,-86.577,-51.881,-6.306
0.352,21.556,2.304,2.304,-86.667,-51.866,-6.314
0.354,21.615,2.331,2.331,-86.726,-51.862,-6.311
0.356,21.650,2.339,2.339,-86.759,-51.865,-6.299
0.358,21.672,2.332,2.332,-86.772,-51.872,-6.284
0.359,21.689,2.317,2.317,-86.771,-51.878,-6.268
0.361,21.704,2.299,2.299,-86.761,-51.879,-6.256
0.363,21.720,2.284,2.284,-86.748,-51.872,-6.252
0.365,21.744,2.277,2.277,-86.737,-51.852,-6.259
0.366,21.787,2.282,2.282,-86.734,-51.815,-6.283
0.368,21.860,2.301,2.301,-86.744,-51.757,-6.325
0.370,21.968,2.337,2.337,-86.773,-51.676,-6.391
0.372,22.109,2.391,2.391,-86.823,-51.576,-6.476
0.373,22.274,2.466,2.466,-86.891,-51.464,-6.577
0.375,22.456,2.563,2.563,-86.980,-51.349,-6.687
0.377,22.649,2.673,2.673,-87.087,-51.237,-6.802
0.378,22.845,2.785,2.785,-87.212,-51.138,-6.916
0.380,23.042,2.885,2.885,-87.356,-51.058,-7.025
0.382,23.238,2.961,2.961,-87.517,-51.006,-7.122
0.384,23.435,3.000,3.000,-87.695,-50.990,-7.203
0.385,23.641,2.992,2.992,-87.891,-51.016,-7.263
0.387,23.869,2.947,2.947,-88.103,-51.093,-7.298
0.389,24.125,2.880,2.880,-88.327,-51.217,-7.306
0.391,24.407,2.805,2.805,-88.559,-51.378,-7.294
0.392,24.708,2.737,2.737,-88.791,-51.567,-7.266
0.394,25.019,2.692,2.692,-89.018,-51.775,-7.226
0.396,25.328,2.679,2.679,-89.235,-51.991,-7.178
0.398,25.627,2.691,2.691,-89.435,-52.206,-7.127
0.399,25.903,2.718,2.718,-89.613,-52.411,-7.077
0.401,26.146,2.752,2.752,-89.763,-52.597,-7.032
0.403,26.343,2.783,2.783,-89.880,-52.752,-6.998
0.405,26.485,2.800,2.800,-89.957,-52.869,-6.977
0.406,26.574,2.800,2.800,-89.998,-52.948,-6.970
0.408,26.623,2.786,2.786,-90.011,-52.995,-6.973
0.410,26.648,2.764,2.764,-90.004,-53.017,-6.981
0.411,26.669,2.739,2.739,-89.986,-53.023,-6.991
0.413,26.691,2.715,2.715,-89.965,-53.019,-6.998
0.415,26.707,2.697,2.697,-89.951,-53.012,-6.999
0.417,26.717,2.689,2.689,-89.952,-53.009,-6.989
0.418,26.753,2.689,2.689,-89.977,-53.019,-6.964
0.420,26.831,2.696,2.696,-90.033,-53.048,-6.920
0.422,26.961,2.709,2.709,-90.131,-53.103,-6.853
0.424,27.146,2.728,2.728,-90.270,-53.186,-6.764
0.425,27.376,2.752,2.752,-90.442,-53.292,-6.656
0.427,27.640,2.781,2.781,-90.642,-53.417,-6.534
0.429,27.930,2.816,2.816,-90.860,-53.555,-6.403
0.431,28.234,2.859,2.859,-91.089,-53.702,-6.267
0.432,28.543,2.912,2.912,-91.322,-53.854,-6.132
0.434,28.847,2.975,2.975,-91.550,-54.005,-6.000
0.436,29.135,3.049,3.049,-91.766,-54.151,-5.878
0.438,29.398,3.131,3.131,-91.962,-54.288,-5.769
0.439,29.625,3.214,3.214,-92.131,-54.409,-5.678
0.441,29.813,3.291,3.291,-92.270,-54.514,-5.607
0.443,29.964,3.357,3.357,-92.380,-54.603,-5.554
0.444,30.083,3.404,3.404,-92.465,-54.677,-5.517
0.446,30.173,3.429,3.429,-92.528,-54.739,-5.494
0.448,30.241,3.435,3.435,-92.571,-54.789,-5.483
0.450,30.289,3.427,3.427,-92.598,-54.830,-5.482
0.451,30.325,3.411,3.411,-92.611,-54.862,-5.488
0.453,30.352,3.393,3.393,-92.614,-54.887,-5.499
0.455,30.377,3.378,3.378,-92.609,-54.906,-5.514
0.457,30.401,3.369,3.369,-92.600,-54.921,-5.530
0.458,30.424,3.366,3.366,-92.589,-54.933,-5.546
0.460,30.444,3.366,3.366,-92.576,-54.942,-5.559
0.462,30.460,3.367,3.367,-92.565,-54.949,-5.568
0.464,30.470,3.367,3.367,-92.556,-54.952,-5.572
0.465,30.476,3.365,3.365,-92.551,-54.952,-5.570
0.467,30.487,3.359,3.359,-92.552,-54.950,-5.558
0.469,30.510,3.350,3.350,-92.558,-54.946,-5.537
0.470,30.547,3.338,3.338,-92.573,-54.938,-5.504
0.472,30.600,3.323,3.323,-92.598,-54.929,-5.459
0.474,30.671,3.306,3.306,-92.634,-54.917,-5.398
0.476,30.760,3.287,3.287,-92.681,-54.903,-5.323
0.477,30.866,3.268,3.268,-92.738,-54.886,-5.236
0.479,30.984,3.248,3.248,-92.802,-54.868,-5.139
0.481,31.110,3.231,3.231,-92.871,-54.847,-5.035
0.483,31.241,3.217,3.217,-92.943,-54.825,-4.928
0.484,31.373,3.207,3.207,-93.015,-54.800,-4.820
0.486,31.503,3.202,3.202,-93.086,-54.774,-4.714
0.488,31.626,3.204,3.204,-93.153,-54.747,-4.614
0.490,31.740,3.210,3.210,-93.213,-54.718,-4.522
0.491,31.841,3.220,3.220,-93.265,-54.687,-4.441
0.493,31.926,3.234,3.234,-93.306,-54.655,-4.374
0.495,31.996,3.251,3.251,-93.338,-54.624,-4.320
0.497,32.052,3.269,3.269,-93.360,-54.595,-4.278
0.498,32.093,3.286,3.286,-93.375,-54.572,-4.248
0.500,32.119,3.299,3.299,-93.383,-54.554,-4.229
0.502,32.132,3.304,3.304,-93.385,-54.546,-4.221
0.503,32.136,3.298,3.298,-93.382,-54.547,-4.222
0.505,32.154,3.279,3.279,-93.375,-54.562,-4.232
0.507,32.190,3.244,3.244,-93.364,-54.590,-4.250
0.509,32.243,3.199,3.199,-93.352,-54.636,-4.275
0.510,32.314,3.153,3.153,-93.338,-54.697,-4.307
0.512,32.394,3.111,3.111,-93.323,-54.768,-4.340
0.514,32.471,3.080,3.080,-93.306,-54.838,-4.370
0.516,32.536,3.069,3.069,-93.288,-54.896,-4.391
0.517,32.579,3.077,3.077,-93.267,-54.933,-4.399
0.519,32.605,3.098,3.098,-93.245,-54.939,-4.387
0.521,32.661,3.120,3.120,-93.221,-54.904,-4.351
0.523,32.773,3.135,3.135,-93.194,-54.816,-4.286
0.524,32.955,3.133,3.133,-93.165,-54.668,-4.186
0.526,33.218,3.105,3.105,-93.133,-54.447,-4.047
0.528,33.571,3.052,3.052,-93.099,-54.147,-3.863
0.530,34.002,2.990,2.990,-93.062,-53.779,-3.642
0.531,34.494,2.936,2.936,-93.024,-53.357,-3.392
0.533,35.026,2.903,2.903,-92.985,-52.900,-3.123
0.535,35.579,2.909,2.909,-92.947,-52.424,-2.843
0.536,36.135,2.968,2.968,-92.910,-51.945,-2.563
0.538,36.674,3.075,3.075,-92.874,-51.481,-2.292
0.540,37.177,3.212,3.212,-92.842,-51.048,-2.038
0.542,37.625,3.361,3.361,-92.813,-50.663,-1.812
0.543,37.998,3.504,3.504,-92.788,-50.342,-1.622
0.545,38.280,3.623,3.623,-92.769,-50.101,-1.477
0.547,38.473,3.702,3.702,-92.754,-49.938,-1.376
0.549,38.588,3.743,3.743,-92.744,-49.841,-1.312
0.550,38.640,3.755,3.755,-92.738,-49.801,-1.280
0.552,38.649,3.746,3.746,-92.735,-49.806,-1.273
0.554,38.690,3.727,3.727,-92.735,-49.845,-1.286
0.556,38.758,3.705,3.705,-92.738,-49.908,-1.311
0.557,38.840,3.689,3.689,-92.742,-49.983,-1.344
0.559,38.924,3.679,3.679,-92.748,-50.060,-1.377
0.561,38.998,3.673,3.673,-92.755,-50.128,-1.405
0.563,39.050,3.670,3.670,-92.761,-50.177,-1.422
0.564,39.077,3.669,3.669,-92.768,-50.203,-1.426
0.566,39.089,3.668,3.668,-92.775,-50.208,-1.418
0.568,39.113,3.666,3.666,-92.783,-50.196,-1.399
0.569,39.154,3.663,3.663,-92.791,-50.168,-1.371
0.571,39.210,3.661,3.661,-92.800,-50.127,-1.333
0.573,39.281,3.658,3.658,-92.809,-50.075,-1.287
0.575,39.362,3.657,3.657,-92.820,-50.014,-1.235
0.576,39.452,3.657,3.657,-92.831,-49.946,-1.177
0.578,39.548,3.659,3.659,-92.844,-49.874,-1.115
0.580,39.648,3.664,3.664,-92.858,-49.799,-1.049
0.582,39.751,3.673,3.673,-92.874,-49.724,-0.980
0.583,39.856,3.689,3.689,-92.893,-49.649,-0.909
0.585,39.962,3.711,3.711,-92.915,-49.575,-0.838
0.587,40.068,3.742,3.742,-92.941,-49.501,-0.766
0.589,40.174,3.780,3.781,-92.972,-49.428,-0.696
0.590,40.280,3.822,3.822,-93.009,-49.357,-0.627
0.592,40.384,3.863,3.864,-93.053,-49.289,-0.560
0.594,40.489,3.901,3.902,-93.104,-49.223,-0.497
0.595,40.593,3.932,3.932,-93.164,-49.161,-0.439
0.597,40.697,3.952,3.952,-93.232,-49.102,-0.386
0.599,40.804,3.962,3.961,-93.309,-49.046,-0.338
0.601,40.914,3.965,3.964,-93.395,-48.992,-0.296
0.602,41.028,3.963,3.962,-93.488,-48.937,-0.258
0.604,41.149,3.959,3.958,-93.588,-48.879,-0.226
0.606,41.276,3.956,3.955,-93.695,-48.816,-0.198
0.608,41.410,3.955,3.956,-93.807,-48.746,-0.174
0.609,41.553,3.957,3.960,-93.924,-48.667,-0.155
0.611,41.704,3.962,3.966,-94.045,-48.576,-0.139
0.613,41.866,3.970,3.974,-94.169,-48.473,-0.126
0.615,42.040,3.981,3.984,-94.296,-48.354,-0.117
0.616,42.225,3.994,3.993,-94.424,-48.221,-0.110
0.618,42.419,4.008,4.002,-94.552,-48.076,-0.105
0.620,42.616,4.023,4.012,-94.678,-47.925,-0.101
0.622,42.812,4.037,4.021,-94.801,-47.771,-0.098
0.623,43.004,4.048,4.032,-94.918,-47.619,-0.094
0.625,43.188,4.054,4.044,-95.027,-47.472,-0.090
0.627,43.357,4.054,4.059,-95.128,-47.336,-0.083
0.628,43.509,4.047,4.074,-95.218,-47.213,-0.074
0.630,43.640,4.036,4.091,-95.295,-47.109,-0.061
0.632,43.744,4.023,4.107,-95.358,-47.028,-0.045
0.634,43.821,4.012,4.121,-95.407,-46.972,-0.024
0.635,43.876,4.004,4.132,-95.441,-46.936,0.000
0.637,43.915,4.003,4.138,-95.464,-46.918,0.025
0.639,43.943,4.009,4.140,-95.478,-46.914,0.051
0.641,43.968,4.020,4.138,-95.483,-46.920,0.074
0.642,43.992,4.032,4.134,-95.483,-46.932,0.094
0.644,44.013,4.042,4.129,-95.478,-46.946,0.110
0.646,44.030,4.050,4.123,-95.471,-46.958,0.119
0.648,44.040,4.051,4.120,-95.463,-46.965,0.121
0.649,44.051,4.046,4.117,-95.457,-46.962,0.113
0.651,44.073,4.037,4.116,-95.453,-46.948,0.096
0.653,44.107,4.026,4.115,-95.453,-46.924,0.072
0.655,44.147,4.016,4.114,-95.454,-46.893,0.046
0.656,44.189,4.009,4.113,-95.458,-46.860,0.022
0.658,44.229,4.005,4.112,-95.465,-46.825,0.002
0.660,44.263,4.006,4.109,-95.473,-46.793,-0.007
0.661,44.292,4.010,4.106,-95.482,-46.766,-0.004
0.663,44.322,4.016,4.102,-95.494,-46.748,0.017
0.665,44.366,4.024,4.097,-95.506,-46.740,0.059
0.667,44.435,4.032,4.092,-95.520,-46.747,0.126
0.668,44.533,4.039,4.086,-95.534,-46.770,0.220
0.670,44.658,4.045,4.080,-95.551,-46.804,0.339
0.672,44.803,4.050,4.073,-95.570,-46.844,0.477
0.674,44.964,4.052,4.065,-95.594,-46.884,0.631
0.675,45.134,4.052,4.057,-95.622,-46.919,0.795
0.677,45.309,4.049,4.048,-95.657,-46.943,0.964
0.679,45.485,4.043,4.039,-95.699,-46.949,1.135
0.681,45.661,4.034,4.030,-95.749,-46.933,1.303
0.682,45.837,4.025,4.021,-95.809,-46.889,1.463
0.684,46.017,4.016,4.013,-95.879,-46.810,1.610
0.686,46.210,4.008,4.008,-95.960,-46.694,1.740
0.688,46.419,4.003,4.004,-96.052,-46.545,1.855
0.689,46.644,4.001,4.002,-96.152,-46.371,1.956
0.691,46.880,4.002,4.003,-96.259,-46.180,2.045
0.693,47.123,4.004,4.005,-96.372,-45.981,2.124
0.694,47.365,4.007,4.008,-96.489,-45.781,2.195
0.696,47.601,4.011,4.011,-96.608,-45.588,2.261
0.698,47.823,4.014,4.014,-96.729,-45.412,2.323
0.700,48.027,4.016,4.015,-96.849,-45.259,2.384
0.701,48.206,4.015,4.014,-96.966,-45.138,2.446
0.703,48.361,4.010,4.010,-97.081,-45.056,2.509
0.705,48.500,4.000,4.000,-97.193,-45.009,2.576
0.707,48.634,3.983,3.983,-97.306,-44.989,2.644
0.708,48.770,3.958,3.958,-97.424,-44.989,2.714
0.710,48.913,3.928,3.928,-97.547,-44.999,2.785
0.712,49.064,3.894,3.894,-97.680,-45.011,2.856
0.714,49.226,3.859,3.860,-97.825,-45.019,2.927
0.715,49.400,3.828,3.828,-97.985,-45.012,2.998
0.717,49.593,3.802,3.802,-98.162,-44.984,3.067
0.719,49.809,3.784,3.784,-98.359,-44.925,3.134
0.720,50.058,3.779,3.779,-98.580,-44.830,3.199
0.722,50.339,3.790,3.789,-98.820,-44.699,3.261
0.724,50.644,3.820,3.819,-99.075,-44.540,3.320
