"T","Distance","Radius","FreeRadius","X","Y","Z"
0.000,0.000,0.948,0.948,-76.253,-54.312,-5.644
0.001,0.132,0.963,0.963,-76.264,-54.392,-5.748
0.003,0.261,0.977,0.977,-76.275,-54.469,-5.851
0.004,0.386,0.990,0.990,-76.286,-54.541,-5.953
0.006,0.504,1.003,1.003,-76.294,-54.606,-6.050
0.007,0.612,1.014,1.014,-76.301,-54.661,-6.144
0.009,0.710,1.023,1.023,-76.305,-54.703,-6.232
0.010,0.796,1.031,1.031,-76.306,-54.730,-6.314
0.012,0.871,1.036,1.036,-76.304,-54.739,-6.388
0.013,0.937,1.041,1.041,-76.297,-54.729,-6.453
0.015,1.003,1.045,1.045,-76.286,-54.696,-6.509
0.016,1.078,1.049,1.049,-76.270,-54.637,-6.553
0.018,1.172,1.056,1.056,-76.249,-54.552,-6.587
0.019,1.285,1.065,1.065,-76.223,-54.445,-6.610
0.021,1.415,1.077,1.077,-76.193,-54.319,-6.625
0.022,1.559,1.094,1.094,-76.160,-54.179,-6.633
0.024,1.713,1.113,1.113,-76.124,-54.030,-6.636
0.025,1.871,1.135,1.135,-76.087,-53.876,-6.635
0.027,2.029,1.159,1.159,-76.049,-53.722,-6.634
0.028,2.184,1.185,1.185,-76.010,-53.573,-6.632
0.030,2.329,1.212,1.212,-75.973,-53.432,-6.632
0.031,2.461,1.240,1.240,-75.936,-53.306,-6.635
0.033,2.575,1.268,1.268,-75.902,-53.197,-6.644
0.034,2.668,1.295,1.295,-75.871,-53.110,-6.659
0.036,2.744,1.321,1.321,-75.843,-53.043,-6.679
0.037,2.805,1.345,1.345,-75.817,-52.993,-6.703
0.039,2.854,1.367,1.367,-75.794,-52.958,-6.729
0.040,2.895,1.385,1.385,-75.773,-52.936,-6.756
0.042,2.929,1.400,1.400,-75.755,-52.922,-6.781
0.043,2.958,1.410,1.410,-75.739,-52.916,-6.804
0.045,2.981,1.417,1.417,-75.724,-52.914,-6.823
0.046,2.999,1.421,1.421,-75.712,-52.914,-6.835
0.048,3.011,1.420,1.420,-75.702,-52.913,-6.841
0.049,3.021,1.416,1.416,-75.693,-52.908,-6.837
0.051,3.040,1.409,1.409,-75.685,-52.898,-6.824
0.052,3.067,1.398,1.398,-75.677,-52.883,-6.803
0.054,3.102,1.384,1.384,-75.666,-52.863,-6.776
0.055,3.144,1.367,1.367,-75.651,-52.839,-6.745
0.057,3.191,1.349,1.349,-75.629,-52.811,-6.714
0.058,3.244,1.329,1.329,-75.599,-52.780,-6.684
0.060,3.303,1.309,1.309,-75.558,-52.746,-6.657
0.061,3.370,1.288,1.288,-75.505,-52.711,-6.636
0.063,3.448,1.267,1.267,-75.438,-52.674,-6.623
0.064,3.541,1.248,1.248,-75.354,-52.636,-6.621
0.066,3.650,1.233,1.233,-75.252,-52.598,-6.632
0.067,3.780,1.222,1.222,-75.130,-52.559,-6.657
0.069,3.928,1.218,1.218,-74.992,-52.522,-6.694
0.070,4.090,1.220,1.220,-74.841,-52.485,-6.742
0.072,4.263,1.232,1.232,-74.681,-52.450,-6.796
0.073,4.442,1.252,1.252,-74.516,-52.416,-6.856
0.075,4.624,1.277,1.277,-74.348,-52.384,-6.918
0.076,4.804,1.306,1.306,-74.182,-52.355,-6.980
0.078,4.977,1.336,1.336,-74.021,-52.329,-7.040
0.079,5.141,1.365,1.365,-73.868,-52.305,-7.094
0.081,5.290,1.391,1.391,-73.728,-52.286,-7.142
0.082,5.421,1.411,1.411,-73.604,-52.270,-7.179
0.084,5.530,1.427,1.427,-73.498,-52.258,-7.205
0.085,5.620,1.437,1.437,-73.410,-52.250,-7.221
0.087,5.693,1.444,1.444,-73.338,-52.245,-7.227
0.088,5.751,1.447,1.447,-73.280,-52.243,-7.226
0.090,5.796,1.448,1.448,-73.236,-52.244,-7.219
0.091,5.831,1.446,1.446,-73.202,-52.247,-7.207
0.093,5.860,1.444,1.444,-73.179,-52.252,-7.191
0.094,5.883,1.440,1.440,-73.164,-52.258,-7.174
0.096,5.904,1.438,1.438,-73.156,-52.265,-7.157
0.097,5.922,1.436,1.436,-73.153,-52.272,-7.140
0.099,5.938,1.438,1.438,-73.154,-52.280,-7.127
0.100,5.951,1.443,1.443,-73.157,-52.287,-7.117
0.101,5.961,1.452,1.452,-73.161,-52.294,-7.110
0.103,5.968,1.466,1.466,-73.164,-52.301,-7.107
0.104,5.974,1.481,1.481,-73.163,-52.307,-7.107
0.106,5.982,1.495,1.495,-73.159,-52.312,-7.110
0.107,5.994,1.506,1.506,-73.149,-52.316,-7.115
0.109,6.014,1.510,1.510,-73.130,-52.320,-7.123
0.110,6.044,1.505,1.505,-73.103,-52.322,-7.133
0.112,6.084,1.488,1.488,-73.064,-52.323,-7.144
0.113,6.137,1.462,1.462,-73.013,-52.324,-7.158
0.115,6.204,1.429,1.429,-72.947,-52.322,-7.172
0.116,6.286,1.396,1.396,-72.867,-52.319,-7.187
0.118,6.381,1.367,1.367,-72.773,-52.313,-7.203
0.119,6.486,1.346,1.346,-72.670,-52.300,-7.217
0.121,6.599,1.339,1.339,-72.559,-52.280,-7.230
0.122,6.719,1.350,1.350,-72.444,-52.251,-7.240
0.124,6.843,1.374,1.374,-72.327,-52.209,-7.246
0.125,6.971,1.404,1.404,-72.211,-52.155,-7.248
0.127,7.104,1.435,1.435,-72.098,-52.084,-7.244
0.128,7.242,1.459,1.459,-71.992,-51.996,-7.234
0.130,7.388,1.469,1.469,-71.895,-51.889,-7.217
0.131,7.545,1.459,1.459,-71.810,-51.760,-7.192
0.133,7.715,1.423,1.423,-71.738,-51.609,-7.158
0.134,7.899,1.368,1.368,-71.679,-51.440,-7.117
0.136,8.093,1.301,1.301,-71.632,-51.258,-7.071
0.137,8.294,1.230,1.230,-71.596,-51.066,-7.022
0.139,8.497,1.162,1.162,-71.569,-50.871,-6.970
0.140,8.700,1.106,1.106,-71.550,-50.676,-6.919
0.142,8.896,1.068,1.068,-71.538,-50.487,-6.869
0.143,9.082,1.053,1.053,-71.532,-50.307,-6.822
0.145,9.252,1.057,1.057,-71.530,-50.142,-6.780
0.146,9.403,1.073,1.073,-71.532,-49.996,-6.745
0.148,9.528,1.098,1.098,-71.537,-49.873,-6.719
0.149,9.626,1.127,1.127,-71.543,-49.777,-6.702
0.151,9.699,1.153,1.153,-71.549,-49.705,-6.693
0.152,9.749,1.173,1.173,-71.556,-49.655,-6.689
0.154,9.781,1.185,1.185,-71.563,-49.624,-6.690
0.155,9.798,1.190,1.190,-71.569,-49.609,-6.693
0.157,9.804,1.191,1.191,-71.574,-49.607,-6.697
0.158,9.814,1.188,1.188,-71.578,-49.616,-6.700
0.160,9.830,1.185,1.185,-71.579,-49.632,-6.699
0.161,9.852,1.183,1.183,-71.578,-49.653,-6.694
0.163,9.879,1.183,1.183,-71.573,-49.677,-6.681
0.164,9.911,1.186,1.186,-71.565,-49.699,-6.660
0.166,9.949,1.190,1.190,-71.554,-49.718,-6.630
0.167,9.993,1.196,1.196,-71.538,-49.732,-6.591
0.169,10.042,1.201,1.201,-71.518,-49.738,-6.546
0.170,10.098,1.206,1.206,-71.494,-49.734,-6.496
0.172,10.160,1.208,1.208,-71.466,-49.719,-6.443
0.173,10.229,1.208,1.208,-71.434,-49.689,-6.389
0.175,10.309,1.206,1.206,-71.398,-49.643,-6.335
0.176,10.401,1.202,1.202,-71.358,-49.579,-6.283
0.178,10.508,1.198,1.198,-71.314,-49.494,-6.234
0.179,10.633,1.194,1.194,-71.265,-49.387,-6.191
0.181,10.780,1.190,1.190,-71.212,-49.255,-6.155
0.182,10.949,1.189,1.189,-71.156,-49.098,-6.127
0.184,11.137,1.189,1.189,-71.096,-48.921,-6.108
0.185,11.340,1.194,1.194,-71.035,-48.728,-6.096
0.187,11.553,1.203,1.203,-70.974,-48.524,-6.092
0.188,11.771,1.219,1.219,-70.913,-48.314,-6.095
0.190,11.990,1.242,1.242,-70.855,-48.104,-6.104
0.191,12.204,1.273,1.273,-70.800,-47.897,-6.121
0.193,12.409,1.315,1.315,-70.749,-47.700,-6.144
0.194,12.600,1.366,1.366,-70.704,-47.516,-6.172
0.196,12.773,1.422,1.422,-70.666,-47.351,-6.207
0.197,12.923,1.479,1.479,-70.636,-47.210,-6.247
0.199,13.047,1.534,1.534,-70.615,-47.096,-6.291
0.200,13.150,1.582,1.582,-70.602,-47.006,-6.339
0.201,13.234,1.619,1.619,-70.596,-46.938,-6.388
0.203,13.302,1.642,1.642,-70.596,-46.889,-6.436
0.204,13.358,1.652,1.652,-70.602,-46.858,-6.482
0.206,13.405,1.651,1.651,-70.612,-46.840,-6.523
0.207,13.443,1.644,1.644,-70.625,-46.834,-6.559
0.209,13.476,1.633,1.633,-70.642,-46.837,-6.587
0.210,13.503,1.623,1.623,-70.660,-46.846,-6.605
0.212,13.526,1.617,1.617,-70.678,-46.859,-6.612
0.213,13.551,1.617,1.617,-70.697,-46.873,-6.606
0.215,13.580,1.623,1.623,-70.715,-46.886,-6.586
0.216,13.617,1.632,1.632,-70.731,-46.896,-6.555
0.218,13.660,1.644,1.644,-70.746,-46.903,-6.515
0.219,13.706,1.655,1.655,-70.759,-46.905,-6.470
0.221,13.755,1.663,1.663,-70.769,-46.901,-6.423
0.222,13.804,1.668,1.668,-70.777,-46.891,-6.376
0.224,13.852,1.666,1.666,-70.781,-46.871,-6.332
0.225,13.900,1.660,1.660,-70.782,-46.843,-6.294
0.227,13.949,1.649,1.649,-70.778,-46.804,-6.265
0.228,14.003,1.635,1.635,-70.771,-46.752,-6.247
0.230,14.069,1.618,1.618,-70.759,-46.688,-6.244
0.231,14.149,1.600,1.600,-70.741,-46.611,-6.257
0.233,14.244,1.582,1.582,-70.719,-46.522,-6.282
0.234,14.353,1.564,1.564,-70.693,-46.423,-6.317
0.236,14.471,1.545,1.545,-70.662,-46.315,-6.357
0.237,14.598,1.527,1.527,-70.627,-46.202,-6.401
0.239,14.730,1.508,1.508,-70.589,-46.083,-6.444
0.240,14.865,1.488,1.488,-70.547,-45.962,-6.484
0.242,14.999,1.468,1.468,-70.502,-45.839,-6.516
0.243,15.132,1.448,1.448,-70.454,-45.717,-6.539
0.245,15.263,1.426,1.426,-70.404,-45.597,-6.547
0.246,15.390,1.405,1.405,-70.351,-45.481,-6.539
0.248,15.517,1.382,1.382,-70.295,-45.370,-6.512
0.249,15.647,1.359,1.359,-70.237,-45.265,-6.465
0.251,15.783,1.336,1.336,-70.174,-45.164,-6.399
0.252,15.928,1.312,1.312,-70.106,-45.068,-6.313
0.254,16.085,1.288,1.288,-70.033,-44.977,-6.208
0.255,16.256,1.267,1.267,-69.953,-44.890,-6.084
0.257,16.444,1.251,1.251,-69.865,-44.808,-5.940
0.258,16.648,1.245,1.245,-69.769,-44.730,-5.777
0.260,16.872,1.251,1.251,-69.665,-44.655,-5.595
0.261,17.115,1.272,1.272,-69.550,-44.584,-5.393
0.263,17.378,1.313,1.313,-69.424,-44.517,-5.171
0.264,17.660,1.374,1.374,-69.289,-44.453,-4.932
0.266,17.957,1.454,1.454,-69.147,-44.393,-4.678
0.267,18.262,1.547,1.547,-69.003,-44.335,-4.416
0.269,18.569,1.649,1.649,-68.860,-44.280,-4.149
0.270,18.874,1.757,1.757,-68.722,-44.228,-3.883
0.272,19.170,1.865,1.865,-68.593,-44.179,-3.620
0.273,19.452,1.970,1.970,-68.478,-44.131,-3.367
0.275,19.715,2.070,2.070,-68.380,-44.086,-3.128
0.276,19.953,2.163,2.163,-68.302,-44.043,-2.907
0.278,20.161,2.249,2.249,-68.250,-44.002,-2.710
0.279,20.338,2.330,2.330,-68.226,-43.962,-2.539
0.281,20.484,2.404,2.404,-68.232,-43.923,-2.399
0.282,20.606,2.473,2.473,-68.260,-43.885,-2.287
0.284,20.710,2.535,2.535,-68.304,-43.844,-2.201
0.285,20.802,2.590,2.590,-68.358,-43.801,-2.140
0.287,20.884,2.635,2.635,-68.414,-43.754,-2.102
0.288,20.960,2.667,2.667,-68.465,-43.702,-2.085
0.290,21.031,2.684,2.684,-68.505,-43.643,-2.088
0.291,21.104,2.682,2.682,-68.528,-43.576,-2.107
0.293,21.188,2.658,2.658,-68.525,-43.500,-2.142
0.294,21.293,2.611,2.611,-68.490,-43.413,-2.190
0.296,21.430,2.545,2.545,-68.417,-43.314,-2.250
0.297,21.603,2.465,2.465,-68.303,-43.204,-2.320
0.299,21.808,2.378,2.378,-68.156,-43.085,-2.397
0.300,22.038,2.291,2.291,-67.981,-42.960,-2.479
0.301,22.287,2.210,2.210,-67.785,-42.832,-2.566
0.303,22.547,2.142,2.142,-67.577,-42.703,-2.653
0.304,22.809,2.092,2.092,-67.363,-42.578,-2.739
0.306,23.068,2.059,2.059,-67.150,-42.458,-2.823
0.307,23.313,2.039,2.039,-66.945,-42.347,-2.901
0.309,23.539,2.030,2.030,-66.756,-42.248,-2.972
0.310,23.736,2.029,2.029,-66.589,-42.163,-3.034
0.312,23.897,2.033,2.033,-66.451,-42.096,-3.085
0.313,24.020,2.039,2.039,-66.346,-42.047,-3.123
0.315,24.108,2.045,2.045,-66.269,-42.015,-3.151
0.316,24.166,2.050,2.050,-66.217,-41.995,-3.170
0.318,24.201,2.055,2.055,-66.185,-41.986,-3.182
0.319,24.219,2.059,2.059,-66.170,-41.985,-3.190
0.321,24.226,2.063,2.063,-66.166,-41.989,-3.194
0.322,24.234,2.067,2.067,-66.170,-41.995,-3.197
0.324,24.244,2.070,2.070,-66.178,-42.001,-3.200
0.325,24.253,2.074,2.074,-66.185,-42.003,-3.206
0.327,24.264,2.077,2.077,-66.187,-42.000,-3.217
0.328,24.285,2.080,2.080,-66.179,-41.988,-3.233
0.330,24.322,2.083,2.083,-66.161,-41.967,-3.256
0.331,24.370,2.087,2.087,-66.135,-41.937,-3.284
0.333,24.428,2.091,2.091,-66.102,-41.902,-3.315
0.334,24.491,2.096,2.096,-66.066,-41.863,-3.349
0.336,24.556,2.100,2.100,-66.028,-41.821,-3.382
0.337,24.620,2.103,2.103,-65.992,-41.780,-3.414
0.339,24.678,2.105,2.105,-65.960,-41.740,-3.442
0.340,24.729,2.103,2.103,-65.934,-41.703,-3.466
0.342,24.768,2.097,2.097,-65.917,-41.672,-3.483
0.343,24.793,2.087,2.087,-65.912,-41.649,-3.491
0.345,24.810,2.071,2.071,-65.920,-41.635,-3.490
0.346,24.835,2.052,2.052,-65.942,-41.630,-3.479
0.348,24.871,2.032,2.032,-65.974,-41.634,-3.461
0.349,24.913,2.013,2.013,-66.009,-41.642,-3.439
0.351,24.956,1.999,1.999,-66.044,-41.653,-3.417
0.352,24.994,1.992,1.992,-66.074,-41.666,-3.398
0.354,25.019,1.995,1.995,-66.094,-41.676,-3.385
0.355,25.029,2.009,2.009,-66.098,-41.683,-3.381
0.357,25.046,2.029,2.029,-66.083,-41.683,-3.389
0.358,25.093,2.052,2.052,-66.044,-41.675,-3.413
0.360,25.176,2.073,2.073,-65.975,-41.657,-3.456
0.361,25.301,2.086,2.086,-65.872,-41.625,-3.521
0.363,25.471,2.089,2.089,-65.734,-41.580,-3.608
0.364,25.677,2.075,2.075,-65.566,-41.526,-3.713
0.366,25.913,2.045,2.045,-65.372,-41.465,-3.834
0.367,26.172,2.004,2.004,-65.159,-41.402,-3.966
0.369,26.447,1.958,1.958,-64.930,-41.339,-4.106
0.370,26.732,1.911,1.911,-64.691,-41.280,-4.250
0.372,27.019,1.870,1.870,-64.447,-41.230,-4.393
0.373,27.303,1.841,1.841,-64.204,-41.190,-4.533
0.375,27.576,1.828,1.828,-63.966,-41.165,-4.666
0.376,27.834,1.832,1.832,-63.738,-41.158,-4.787
0.378,28.072,1.853,1.853,-63.526,-41.173,-4.894
0.379,28.290,1.886,1.886,-63.332,-41.210,-4.984
0.381,28.490,1.931,1.931,-63.156,-41.263,-5.063
0.382,28.675,1.983,1.983,-62.997,-41.327,-5.132
0.384,28.846,2.043,2.043,-62.855,-41.397,-5.197
0.385,29.003,2.106,2.106,-62.729,-41.468,-5.259
0.387,29.146,2.171,2.171,-62.619,-41.534,-5.324
0.388,29.277,2.235,2.235,-62.525,-41.590,-5.394
0.390,29.396,2.295,2.295,-62.445,-41.631,-5.473
0.391,29.511,2.350,2.350,-62.380,-41.651,-5.565
0.393,29.631,2.396,2.396,-62.328,-41.645,-5.673
0.394,29.769,2.431,2.431,-62.290,-41.608,-5.801
0.396,29.934,2.455,2.455,-62.264,-41.539,-5.949
0.397,30.124,2.467,2.467,-62.249,-41.444,-6.112
0.399,30.334,2.470,2.470,-62.243,-41.327,-6.287
0.400,30.559,2.467,2.467,-62.245,-41.193,-6.468
0.401,30.792,2.460,2.460,-62.253,-41.050,-6.651
0.403,31.027,2.451,2.451,-62.266,-40.901,-6.833
0.404,31.256,2.442,2.442,-62.282,-40.753,-7.007
0.406,31.474,2.435,2.435,-62.301,-40.610,-7.169
0.407,31.671,2.430,2.430,-62.319,-40.479,-7.316
0.409,31.843,2.428,2.428,-62.337,-40.364,-7.443
0.410,31.981,2.428,2.428,-62.352,-40.272,-7.544
0.412,32.084,2.432,2.432,-62.364,-40.203,-7.620
0.413,32.157,2.439,2.439,-62.375,-40.153,-7.672
0.415,32.204,2.449,2.449,-62.386,-40.120,-7.704
0.416,32.234,2.464,2.464,-62.400,-40.098,-7.718
0.418,32.256,2.480,2.480,-62.417,-40.084,-7.719
0.419,32.283,2.496,2.496,-62.440,-40.074,-7.708
0.421,32.320,2.513,2.513,-62.470,-40.064,-7.689
0.422,32.367,2.528,2.528,-62.509,-40.050,-7.665
0.424,32.427,2.540,2.540,-62.558,-40.028,-7.640
0.425,32.501,2.547,2.547,-62.619,-39.994,-7.615
0.427,32.594,2.551,2.551,-62.694,-39.944,-7.594
0.428,32.705,2.552,2.552,-62.782,-39.878,-7.578
0.430,32.832,2.551,2.551,-62.880,-39.798,-7.568
0.431,32.971,2.548,2.548,-62.986,-39.709,-7.561
0.433,33.117,2.544,2.544,-63.097,-39.613,-7.558
0.434,33.267,2.541,2.541,-63.209,-39.514,-7.558
0.436,33.415,2.539,2.539,-63.320,-39.417,-7.559
0.437,33.557,2.537,2.537,-63.427,-39.323,-7.562
0.439,33.688,2.537,2.537,-63.526,-39.237,-7.566
0.440,33.805,2.536,2.536,-63.615,-39.162,-7.569
0.442,33.902,2.536,2.536,-63.691,-39.102,-7.572
0.443,33.975,2.536,2.536,-63.751,-39.059,-7.573
0.445,34.024,2.537,2.537,-63.794,-39.035,-7.572
0.446,34.054,2.536,2.536,-63.822,-39.024,-7.571
0.448,34.069,2.536,2.536,-63.836,-39.023,-7.570
0.449,34.073,2.535,2.535,-63.839,-39.026,-7.570
0.451,34.082,2.533,2.533,-63.832,-39.030,-7.572
0.452,34.098,2.530,2.530,-63.817,-39.030,-7.577
0.454,34.123,2.527,2.527,-63.795,-39.022,-7.586
0.455,34.159,2.522,2.522,-63.768,-39.000,-7.599
0.457,34.211,2.516,2.516,-63.739,-38.962,-7.618
0.458,34.283,2.512,2.512,-63.709,-38.902,-7.644
0.460,34.380,2.511,2.511,-63.679,-38.816,-7.677
0.461,34.502,2.514,2.514,-63.650,-38.704,-7.716
0.463,34.644,2.524,2.524,-63.624,-38.572,-7.761
0.464,34.800,2.541,2.541,-63.598,-38.425,-7.808
0.466,34.966,2.569,2.569,-63.575,-38.268,-7.856
0.467,35.135,2.604,2.604,-63.552,-38.108,-7.904
0.469,35.301,2.645,2.645,-63.531,-37.949,-7.948
0.470,35.459,2.690,2.690,-63.512,-37.797,-7.987
0.472,35.604,2.734,2.734,-63.494,-37.657,-8.019
0.473,35.729,2.776,2.776,-63.477,-37.535,-8.042
0.475,35.829,2.812,2.812,-63.461,-37.437,-8.055
0.476,35.900,2.841,2.841,-63.447,-37.367,-8.054
0.478,35.945,2.862,2.862,-63.434,-37.327,-8.041
0.479,35.974,2.876,2.876,-63.423,-37.310,-8.020
0.481,36.001,2.883,2.883,-63.414,-37.311,-7.995
0.482,36.031,2.884,2.884,-63.408,-37.326,-7.969
0.484,36.063,2.879,2.879,-63.404,-37.348,-7.947
0.485,36.091,2.869,2.869,-63.405,-37.373,-7.932
0.487,36.114,2.854,2.854,-63.408,-37.395,-7.929
0.488,36.133,2.836,2.836,-63.416,-37.408,-7.941
0.490,36.167,2.815,2.815,-63.429,-37.408,-7.971
0.491,36.226,2.792,2.792,-63.446,-37.388,-8.025
0.493,36.321,2.770,2.770,-63.469,-37.345,-8.106
0.494,36.450,2.748,2.748,-63.496,-37.276,-8.212
0.496,36.609,2.728,2.728,-63.526,-37.186,-8.339
0.497,36.788,2.710,2.710,-63.556,-37.078,-8.480
0.499,36.983,2.696,2.696,-63.584,-36.957,-8.629
0.500,37.186,2.686,2.686,-63.609,-36.826,-8.782
0.501,37.389,2.681,2.681,-63.628,-36.689,-8.931
0.503,37.587,2.681,2.681,-63.639,-36.550,-9.071
0.504,37.773,2.688,2.688,-63.640,-36.413,-9.197
0.506,37.941,2.701,2.701,-63.629,-36.282,-9.302
0.507,38.088,2.720,2.720,-63.604,-36.160,-9.381
0.509,38.212,2.744,2.744,-63.563,-36.052,-9.427
0.510,38.323,2.771,2.771,-63.506,-35.959,-9.443
0.512,38.433,2.800,2.800,-63.434,-35.877,-9.432
0.513,38.548,2.830,2.830,-63.349,-35.805,-9.403
0.515,38.672,2.859,2.859,-63.252,-35.740,-9.361
0.516,38.804,2.886,2.886,-63.144,-35.681,-9.312
0.518,38.942,2.911,2.911,-63.028,-35.625,-9.263
0.519,39.084,2.933,2.933,-62.904,-35.570,-9.221
0.521,39.228,2.953,2.953,-62.775,-35.513,-9.191
0.522,39.375,2.970,2.970,-62.642,-35.452,-9.180
0.524,39.528,2.983,2.983,-62.505,-35.385,-9.195
0.525,39.691,2.994,2.994,-62.367,-35.310,-9.241
0.527,39.869,3.002,3.002,-62.230,-35.227,-9.318
0.528,40.061,3.008,3.008,-62.095,-35.138,-9.421
0.530,40.263,3.012,3.012,-61.965,-35.046,-9.546
0.531,40.472,3.016,3.016,-61.841,-34.953,-9.684
0.533,40.681,3.020,3.020,-61.725,-34.861,-9.833
0.534,40.886,3.026,3.026,-61.620,-34.772,-9.985
0.536,41.081,3.033,3.033,-61.527,-34.690,-10.135
0.537,41.260,3.043,3.043,-61.448,-34.615,-10.277
0.539,41.417,3.055,3.055,-61.385,-34.552,-10.406
0.540,41.546,3.069,3.069,-61.340,-34.502,-10.516
0.542,41.643,3.084,3.084,-61.315,-34.466,-10.603
0.543,41.708,3.100,3.100,-61.309,-34.446,-10.664
0.545,41.750,3.116,3.116,-61.316,-34.435,-10.704
0.546,41.777,3.132,3.132,-61.332,-34.431,-10.726
0.548,41.798,3.147,3.147,-61.351,-34.429,-10.734
0.549,41.817,3.160,3.160,-61.370,-34.425,-10.731
0.551,41.835,3.169,3.169,-61.382,-34.416,-10.722
0.552,41.858,3.174,3.174,-61.384,-34.397,-10.709
0.554,41.896,3.172,3.172,-61.370,-34.365,-10.697
0.555,41.957,3.163,3.163,-61.335,-34.314,-10.688
0.557,42.051,3.145,3.145,-61.275,-34.243,-10.687
0.558,42.184,3.122,3.122,-61.185,-34.145,-10.698
0.560,42.356,3.097,3.097,-61.065,-34.023,-10.720
0.561,42.563,3.075,3.075,-60.921,-33.879,-10.753
0.563,42.797,3.061,3.061,-60.756,-33.718,-10.796
0.564,43.054,3.058,3.058,-60.577,-33.543,-10.847
0.566,43.325,3.071,3.071,-60.387,-33.358,-10.905
0.567,43.606,3.104,3.104,-60.191,-33.166,-10.969
0.569,43.890,3.152,3.152,-59.995,-32.973,-11.038
0.570,44.171,3.211,3.211,-59.803,-32.781,-11.111
0.572,44.442,3.278,3.278,-59.620,-32.595,-11.185
0.573,44.698,3.347,3.347,-59.451,-32.418,-11.261
0.575,44.933,3.413,3.413,-59.301,-32.255,-11.336
0.576,45.145,3.473,3.473,-59.171,-32.105,-11.412
0.578,45.338,3.524,3.524,-59.061,-31.967,-11.489
0.579,45.514,3.567,3.567,-58.968,-31.840,-11.568
0.581,45.677,3.606,3.606,-58.893,-31.721,-11.652
0.582,45.831,3.641,3.641,-58.834,-31.611,-11.742
0.584,45.980,3.676,3.676,-58.790,-31.506,-11.838
0.585,46.129,3.713,3.713,-58.761,-31.405,-11.942
0.587,46.280,3.754,3.754,-58.744,-31.306,-12.056
0.588,46.439,3.799,3.799,-58.740,-31.208,-12.182
0.590,46.608,3.849,3.849,-58.746,-31.110,-12.319
0.591,46.791,3.903,3.903,-58.763,-31.009,-12.470
0.593,46.986,3.960,3.960,-58.788,-30.907,-12.634
0.594,47.189,4.019,4.019,-58.821,-30.803,-12.806
0.596,47.398,4.081,4.081,-58.858,-30.700,-12.984
0.597,47.608,4.144,4.144,-58.899,-30.598,-13.163
0.599,47.815,4.206,4.206,-58.942,-30.500,-13.340
0.600,48.015,4.264,4.264,-58.985,-30.407,-13.512
0.601,48.205,4.315,4.315,-59.026,-30.320,-13.676
0.603,48.380,4.356,4.356,-59.064,-30.240,-13.827
0.604,48.536,4.383,4.383,-59.097,-30.169,-13.962
0.606,48.669,4.393,4.393,-59.124,-30.109,-14.077
0.607,48.776,4.385,4.385,-59.142,-30.060,-14.171
0.609,48.857,4.361,4.361,-59.152,-30.022,-14.242
0.610,48.917,4.328,4.328,-59.156,-29.996,-14.296
0.612,48.960,4.289,4.289,-59.155,-29.981,-14.336
0.613,48.991,4.251,4.251,-59.151,-29.976,-14.366
0.615,49.017,4.219,4.219,-59.147,-29.981,-14.391
0.616,49.044,4.198,4.198,-59.143,-29.996,-14.415
0.618,49.079,4.190,4.190,-59.141,-30.018,-14.440
0.619,49.124,4.192,4.192,-59.144,-30.050,-14.473
