"T","Distance","Radius","FreeRadius","X","Y","Z"
0.000,0.000,1.229,1.229,172.296,160.772,181.043
0.002,0.205,1.311,1.311,172.349,160.599,180.946
0.004,0.408,1.393,1.393,172.401,160.428,180.850
0.005,0.608,1.478,1.478,172.452,160.260,180.754
0.007,0.802,1.567,1.567,172.500,160.097,180.661
0.009,0.990,1.660,1.660,172.545,159.939,180.569
0.011,1.168,1.760,1.760,172.585,159.789,180.481
0.012,1.337,1.864,1.864,172.621,159.649,180.396
0.014,1.493,1.967,1.967,172.651,159.519,180.314
0.016,1.636,2.064,2.064,172.674,159.401,180.238
0.018,1.763,2.149,2.149,172.690,159.296,180.166
0.019,1.874,2.217,2.217,172.697,159.207,180.100
0.021,1.968,2.261,2.261,172.695,159.135,180.040
0.023,2.045,2.282,2.282,172.684,159.080,179.987
0.025,2.107,2.287,2.287,172.663,159.044,179.941
0.027,2.157,2.282,2.282,172.637,159.022,179.904
0.028,2.197,2.271,2.271,172.609,159.011,179.878
0.030,2.227,2.261,2.261,172.583,159.009,179.864
0.032,2.248,2.258,2.258,172.562,159.013,179.862
0.034,2.267,2.259,2.259,172.550,159.019,179.875
0.035,2.296,2.261,2.261,172.550,159.024,179.904
0.037,2.345,2.262,2.262,172.565,159.025,179.949
0.039,2.418,2.256,2.256,172.600,159.019,180.014
0.041,2.521,2.241,2.241,172.658,159.003,180.098
0.042,2.659,2.217,2.217,172.743,158.973,180.203
0.044,2.837,2.188,2.188,172.857,158.928,180.331
0.046,3.057,2.164,2.164,173.004,158.864,180.482
0.048,3.316,2.152,2.152,173.180,158.782,180.654
0.049,3.607,2.159,2.159,173.380,158.686,180.842
0.051,3.923,2.194,2.194,173.598,158.579,181.044
0.053,4.256,2.256,2.256,173.829,158.463,181.254
0.055,4.598,2.338,2.338,174.067,158.342,181.468
0.057,4.943,2.432,2.432,174.307,158.219,181.684
0.058,5.284,2.528,2.528,174.542,158.096,181.896
0.060,5.611,2.619,2.619,174.768,157.977,182.101
0.062,5.919,2.697,2.697,174.979,157.865,182.295
0.064,6.199,2.759,2.759,175.170,157.762,182.473
0.065,6.445,2.807,2.807,175.334,157.672,182.633
0.067,6.649,2.844,2.844,175.466,157.597,182.769
0.069,6.808,2.871,2.871,175.565,157.540,182.880
0.071,6.926,2.890,2.890,175.632,157.499,182.967
0.072,7.009,2.902,2.902,175.673,157.471,183.034
0.074,7.062,2.911,2.911,175.691,157.457,183.081
0.076,7.093,2.917,2.917,175.690,157.453,183.112
0.078,7.117,2.925,2.925,175.673,157.460,183.129
0.080,7.148,2.937,2.937,175.646,157.474,183.133
0.081,7.189,2.954,2.954,175.611,157.494,183.128
0.083,7.236,2.978,2.978,175.573,157.519,183.115
0.085,7.287,3.006,3.006,175.536,157.548,183.096
0.087,7.336,3.035,3.035,175.503,157.578,183.075
0.088,7.381,3.063,3.063,175.479,157.608,183.052
0.090,7.419,3.087,3.087,175.467,157.637,183.030
0.092,7.452,3.103,3.103,175.468,157.664,183.011
0.094,7.485,3.112,3.112,175.481,157.688,182.994
0.095,7.521,3.114,3.114,175.505,157.710,182.978
0.097,7.563,3.112,3.112,175.540,157.730,182.966
0.099,7.611,3.106,3.106,175.584,157.747,182.955
0.101,7.665,3.098,3.098,175.636,157.761,182.947
0.102,7.726,3.089,3.089,175.695,157.772,182.942
0.104,7.792,3.080,3.080,175.761,157.780,182.940
0.106,7.864,3.069,3.069,175.833,157.784,182.940
0.108,7.940,3.056,3.056,175.909,157.785,182.943
0.110,8.021,3.042,3.042,175.989,157.782,182.949
0.111,8.104,3.025,3.025,176.071,157.776,182.959
0.113,8.190,3.006,3.006,176.156,157.766,182.971
0.115,8.278,2.984,2.984,176.242,157.752,182.986
0.117,8.367,2.961,2.961,176.328,157.735,183.002
0.118,8.457,2.937,2.937,176.414,157.716,183.020
0.120,8.548,2.912,2.912,176.500,157.694,183.038
0.122,8.637,2.888,2.888,176.584,157.669,183.055
0.124,8.725,2.864,2.864,176.666,157.643,183.072
0.125,8.810,2.840,2.840,176.745,157.615,183.086
0.127,8.892,2.815,2.815,176.821,157.587,183.098
0.129,8.971,2.790,2.790,176.894,157.557,183.107
0.131,9.045,2.763,2.763,176.962,157.527,183.113
0.133,9.115,2.734,2.734,177.024,157.497,183.113
0.134,9.179,2.704,2.704,177.081,157.467,183.109
0.136,9.239,2.674,2.674,177.132,157.438,183.099
0.138,9.296,2.644,2.644,177.179,157.409,183.086
0.140,9.350,2.616,2.616,177.224,157.382,183.069
0.141,9.404,2.590,2.590,177.267,157.356,183.051
0.143,9.457,2.566,2.566,177.310,157.332,183.031
0.145,9.510,2.546,2.546,177.355,157.311,183.012
0.147,9.565,2.528,2.528,177.402,157.291,182.993
0.148,9.621,2.512,2.512,177.454,157.275,182.977
0.150,9.681,2.497,2.497,177.511,157.262,182.964
0.152,9.746,2.483,2.483,177.574,157.252,182.954
0.154,9.819,2.469,2.469,177.646,157.245,182.950
0.155,9.900,2.454,2.454,177.727,157.243,182.951
0.157,9.992,2.435,2.435,177.819,157.246,182.959
0.159,10.094,2.410,2.410,177.921,157.251,182.972
0.161,10.205,2.377,2.377,178.030,157.258,182.987
0.163,10.322,2.335,2.335,178.145,157.267,183.002
0.164,10.443,2.286,2.286,178.266,157.275,183.015
0.166,10.568,2.234,2.234,178.390,157.283,183.023
0.168,10.694,2.185,2.185,178.516,157.287,183.024
0.170,10.820,2.144,2.144,178.642,157.288,183.015
0.171,10.947,2.116,2.116,178.767,157.284,182.995
0.173,11.074,2.106,2.106,178.889,157.274,182.960
0.175,11.204,2.110,2.110,179.007,157.258,182.908
0.177,11.340,2.120,2.120,179.120,157.232,182.837
0.178,11.484,2.129,2.129,179.225,157.198,182.745
0.180,11.640,2.131,2.131,179.322,157.154,182.631
0.182,11.807,2.117,2.117,179.411,157.103,182.499
0.184,11.984,2.084,2.084,179.493,157.048,182.352
0.186,12.168,2.039,2.039,179.567,156.989,182.194
0.187,12.356,1.990,1.990,179.634,156.930,182.029
0.189,12.545,1.947,1.947,179.694,156.873,181.859
0.191,12.732,1.918,1.918,179.748,156.819,181.688
0.193,12.913,1.911,1.911,179.795,156.771,181.520
0.194,13.084,1.928,1.928,179.836,156.732,181.358
0.196,13.243,1.960,1.960,179.872,156.703,181.206
0.198,13.386,1.997,1.997,179.902,156.686,181.067
0.200,13.511,2.028,2.028,179.926,156.685,180.945
0.201,13.617,2.044,2.044,179.946,156.699,180.842
0.203,13.708,2.035,2.035,179.963,156.729,180.758
0.205,13.791,2.003,2.003,179.980,156.771,180.688
0.207,13.871,1.959,1.959,180.001,156.822,180.630
0.208,13.952,1.910,1.910,180.028,156.880,180.581
0.210,14.035,1.868,1.868,180.064,156.940,180.536
0.212,14.124,1.840,1.840,180.113,157.002,180.494
0.214,14.221,1.835,1.835,180.177,157.061,180.450
0.216,14.331,1.847,1.847,180.259,157.114,180.401
0.217,14.457,1.870,1.870,180.362,157.159,180.344
0.219,14.605,1.896,1.896,180.489,157.194,180.277
0.221,14.781,1.916,1.916,180.644,157.214,180.194
0.223,14.991,1.924,1.924,180.828,157.217,180.094
0.224,15.238,1.919,1.919,181.043,157.202,179.975
0.226,15.515,1.911,1.911,181.283,157.170,179.839
0.228,15.819,1.915,1.915,181.543,157.125,179.689
0.230,16.141,1.945,1.945,181.816,157.068,179.528
0.231,16.475,2.013,2.013,182.096,157.003,179.359
0.233,16.814,2.132,2.132,182.378,156.931,179.184
0.235,17.153,2.299,2.299,182.656,156.855,179.006
0.237,17.483,2.495,2.495,182.924,156.777,178.829
0.239,17.798,2.697,2.697,183.175,156.700,178.656
0.240,18.091,2.887,2.887,183.404,156.627,178.488
0.242,18.356,3.043,3.043,183.606,156.559,178.329
0.244,18.587,3.148,3.148,183.773,156.500,178.182
0.246,18.778,3.204,3.204,183.902,156.451,178.049
0.247,18.931,3.224,3.224,183.991,156.414,177.930
0.249,19.053,3.222,3.222,184.045,156.389,177.824
0.251,19.152,3.209,3.209,184.068,156.378,177.728
0.253,19.240,3.199,3.199,184.065,156.380,177.641
0.254,19.326,3.201,3.201,184.039,156.395,177.560
0.256,19.420,3.209,3.209,183.995,156.426,177.483
0.258,19.525,3.219,3.219,183.937,156.471,177.408
0.260,19.643,3.222,3.222,183.869,156.532,177.334
0.261,19.774,3.211,3.211,183.795,156.610,177.258
0.263,19.918,3.181,3.181,183.720,156.703,177.179
0.265,20.076,3.129,3.129,183.647,156.814,177.093
0.267,20.248,3.061,3.061,183.581,156.943,177.000
0.269,20.435,2.983,2.983,183.525,157.090,176.899
0.270,20.635,2.901,2.901,183.479,157.251,176.789
0.272,20.846,2.821,2.821,183.441,157.424,176.675
0.274,21.065,2.748,2.748,183.412,157.606,176.556
0.276,21.289,2.686,2.686,183.389,157.794,176.436
0.277,21.514,2.634,2.634,183.372,157.984,176.316
0.279,21.737,2.591,2.591,183.361,158.173,176.198
0.281,21.955,2.558,2.558,183.353,158.359,176.085
0.283,22.164,2.534,2.534,183.349,158.537,175.977
0.284,22.360,2.519,2.519,183.347,158.706,175.877
0.286,22.540,2.511,2.511,183.346,158.862,175.788
0.288,22.700,2.509,2.509,183.345,159.002,175.709
0.290,22.837,2.512,2.512,183.345,159.122,175.645
0.292,22.949,2.517,2.517,183.343,159.223,175.594
0.293,23.041,2.524,2.524,183.340,159.306,175.556
0.295,23.113,2.531,2.531,183.337,159.372,175.528
0.297,23.168,2.538,2.538,183.333,159.424,175.508
0.299,23.210,2.545,2.545,183.329,159.463,175.495
0.300,23.240,2.550,2.550,183.325,159.492,175.488
0.302,23.260,2.554,2.554,183.321,159.512,175.484
0.304,23.274,2.557,2.557,183.317,159.525,175.482
0.306,23.283,2.557,2.557,183.314,159.533,175.480
0.307,23.289,2.556,2.556,183.312,159.537,175.476
0.309,23.297,2.553,2.553,183.310,159.540,175.469
0.311,23.310,2.548,2.548,183.309,159.544,175.457
0.313,23.330,2.543,2.543,183.309,159.549,175.438
0.314,23.357,2.535,2.535,183.311,159.558,175.412
0.316,23.390,2.528,2.528,183.314,159.569,175.381
0.318,23.430,2.524,2.524,183.320,159.584,175.345
0.320,23.476,2.523,2.523,183.328,159.602,175.304
0.322,23.527,2.529,2.529,183.338,159.625,175.259
0.323,23.584,2.543,2.543,183.351,159.652,175.210
0.325,23.646,2.567,2.566,183.368,159.683,175.159
0.327,23.713,2.596,2.596,183.388,159.720,175.106
0.329,23.786,2.628,2.628,183.412,159.762,175.052
0.330,23.864,2.659,2.659,183.441,159.809,174.997
0.332,23.948,2.684,2.684,183.473,159.863,174.941
0.334,24.038,2.700,2.700,183.511,159.922,174.886
0.336,24.133,2.705,2.706,183.553,159.988,174.832
0.337,24.232,2.704,2.704,183.599,160.059,174.779
0.339,24.335,2.698,2.698,183.648,160.134,174.728
0.341,24.441,2.691,2.692,183.699,160.212,174.678
0.343,24.548,2.687,2.687,183.752,160.292,174.631
0.345,24.655,2.688,2.688,183.804,160.373,174.585
0.346,24.760,2.695,2.694,183.856,160.454,174.543
0.348,24.863,2.706,2.705,183.907,160.534,174.503
0.350,24.961,2.716,2.719,183.955,160.612,174.466
0.352,25.055,2.725,2.735,184.001,160.686,174.432
0.353,25.142,2.730,2.751,184.042,160.757,174.402
0.355,25.221,2.729,2.767,184.078,160.822,174.375
0.357,25.291,2.724,2.781,184.109,160.881,174.353
0.359,25.353,2.715,2.794,184.134,160.934,174.334
0.360,25.407,2.707,2.805,184.156,160.981,174.318
0.362,25.455,2.701,2.816,184.174,161.022,174.304
0.364,25.497,2.699,2.825,184.191,161.059,174.290
0.366,25.535,2.703,2.833,184.207,161.091,174.276
0.367,25.570,2.711,2.840,184.223,161.118,174.261
0.369,25.604,2.723,2.847,184.240,161.141,174.244
0.371,25.639,2.736,2.855,184.261,161.161,174.224
0.373,25.676,2.749,2.865,184.284,161.178,174.201
0.375,25.718,2.760,2.876,184.313,161.192,174.173
0.376,25.768,2.769,2.891,184.347,161.203,174.140
0.378,25.826,2.776,2.907,184.389,161.212,174.100
0.380,25.894,2.780,2.926,184.438,161.220,174.053
0.382,25.971,2.782,2.947,184.494,161.224,174.001
0.383,26.056,2.782,2.970,184.556,161.225,173.943
0.385,26.148,2.780,2.995,184.625,161.222,173.881
0.387,26.246,2.778,3.022,184.698,161.213,173.817
0.389,26.350,2.781,3.049,184.777,161.199,173.750
0.390,26.458,2.792,3.076,184.859,161.178,173.683
0.392,26.571,2.816,3.102,184.945,161.149,173.616
0.394,26.688,2.855,3.127,185.033,161.112,173.549
0.396,26.808,2.913,3.150,185.124,161.065,173.485
0.398,26.933,2.983,3.171,185.216,161.009,173.423
0.399,27.061,3.059,3.191,185.309,160.941,173.366
0.401,27.194,3.134,3.209,185.402,160.863,173.313
0.403,27.331,3.201,3.227,185.494,160.773,173.266
0.405,27.472,3.254,3.245,185.586,160.675,173.221
0.406,27.615,3.289,3.262,185.674,160.571,173.180
0.408,27.759,3.313,3.282,185.759,160.463,173.139
0.410,27.901,3.330,3.305,185.840,160.352,173.099
0.412,28.041,3.347,3.332,185.916,160.242,173.057
0.413,28.177,3.370,3.366,185.985,160.134,173.014
0.415,28.306,3.402,3.407,186.047,160.031,172.967
0.417,28.428,3.445,3.452,186.101,159.934,172.915
0.419,28.542,3.489,3.497,186.145,159.846,172.858
0.420,28.647,3.530,3.536,186.180,159.769,172.795
0.422,28.746,3.559,3.562,186.203,159.706,172.723
0.424,28.841,3.571,3.571,186.215,159.657,172.643
0.426,28.937,3.559,3.558,186.217,159.622,172.553
0.428,29.038,3.530,3.527,186.211,159.599,172.456
0.429,29.145,3.489,3.487,186.200,159.587,172.349
0.431,29.260,3.446,3.444,186.184,159.585,172.235
0.433,29.384,3.407,3.406,186.166,159.591,172.113
0.435,29.515,3.381,3.381,186.148,159.604,171.983
0.436,29.655,3.371,3.372,186.132,159.622,171.846
0.438,29.801,3.372,3.372,186.120,159.644,171.702
0.440,29.954,3.376,3.376,186.113,159.668,171.551
0.442,30.114,3.375,3.375,186.115,159.694,171.393
0.443,30.281,3.361,3.361,186.127,159.719,171.229
0.445,30.454,3.329,3.329,186.150,159.743,171.059
0.447,30.635,3.277,3.277,186.186,159.764,170.883
0.449,30.821,3.215,3.215,186.234,159.783,170.704
0.451,31.012,3.152,3.153,186.291,159.801,170.523
0.452,31.206,3.098,3.098,186.357,159.819,170.342
0.454,31.401,3.062,3.062,186.431,159.836,170.162
0.456,31.595,3.052,3.052,186.512,159.853,169.986
0.458,31.788,3.067,3.066,186.598,159.871,169.815
0.459,31.976,3.098,3.097,186.689,159.891,169.650
0.461,32.159,3.140,3.138,186.783,159.912,169.495
0.463,32.335,3.182,3.181,186.878,159.935,169.349
0.465,32.502,3.219,3.219,186.975,159.962,169.216
0.466,32.658,3.245,3.247,187.071,159.992,169.096
0.468,32.803,3.260,3.265,187.166,160.025,168.991
0.470,32.939,3.269,3.276,187.260,160.062,168.901
0.472,33.067,3.275,3.282,187.353,160.100,168.821
0.473,33.190,3.282,3.286,187.447,160.139,168.752
0.475,33.310,3.293,3.290,187.542,160.177,168.690
0.477,33.427,3.309,3.297,187.638,160.212,168.633
0.479,33.545,3.326,3.305,187.737,160.245,168.579
0.481,33.664,3.343,3.316,187.840,160.273,168.526
0.482,33.785,3.355,3.331,187.946,160.296,168.472
0.484,33.911,3.358,3.348,188.058,160.312,168.414
0.486,34.044,3.350,3.369,188.174,160.319,168.352
0.488,34.186,3.333,3.393,188.297,160.318,168.281
0.489,34.339,3.310,3.420,188.427,160.306,168.201
0.491,34.504,3.289,3.449,188.563,160.283,168.110
0.493,34.680,3.273,3.480,188.705,160.250,168.011
0.495,34.864,3.270,3.513,188.850,160.209,167.905
0.496,35.054,3.282,3.546,188.997,160.162,167.795
0.498,35.247,3.308,3.578,189.145,160.110,167.683
0.500,35.440,3.343,3.605,189.292,160.054,167.571
0.502,35.630,3.382,3.626,189.436,159.996,167.461
0.504,35.814,3.420,3.637,189.575,159.937,167.355
0.505,35.990,3.452,3.636,189.708,159.878,167.256
0.507,36.155,3.474,3.622,189.833,159.822,167.166
0.509,36.305,3.488,3.598,189.949,159.770,167.086
0.511,36.438,3.495,3.567,190.055,159.723,167.019
0.512,36.552,3.497,3.536,190.147,159.682,166.967
0.514,36.647,3.494,3.506,190.228,159.647,166.930
0.516,36.726,3.489,3.483,190.297,159.619,166.905
0.518,36.791,3.484,3.468,190.356,159.596,166.892
0.519,36.845,3.478,3.460,190.407,159.577,166.889
0.521,36.890,3.475,3.459,190.449,159.563,166.894
0.523,36.929,3.474,3.465,190.485,159.552,166.906
0.525,36.965,3.477,3.475,190.516,159.543,166.923
0.527,36.999,3.486,3.490,190.542,159.537,166.943
0.528,37.031,3.499,3.508,190.564,159.533,166.965
0.530,37.062,3.514,3.528,190.585,159.529,166.988
0.532,37.091,3.529,3.547,190.605,159.525,167.009
0.534,37.118,3.542,3.565,190.625,159.521,167.027
0.535,37.144,3.552,3.580,190.646,159.516,167.042
0.537,37.169,3.555,3.590,190.667,159.510,167.053
0.539,37.193,3.555,3.597,190.690,159.504,167.060
0.541,37.218,3.551,3.600,190.713,159.496,167.064
0.542,37.243,3.547,3.600,190.736,159.487,167.065
0.544,37.269,3.544,3.598,190.760,159.477,167.064
0.546,37.295,3.543,3.594,190.783,159.467,167.061
0.548,37.321,3.545,3.590,190.806,159.455,167.056
0.549,37.348,3.549,3.584,190.829,159.442,167.049
0.551,37.376,3.554,3.578,190.852,159.428,167.042
0.553,37.403,3.558,3.571,190.873,159.413,167.033
0.555,37.431,3.561,3.564,190.894,159.397,167.025
0.557,37.458,3.560,3.557,190.914,159.380,167.016
0.558,37.486,3.557,3.551,190.933,159.362,167.007
0.560,37.516,3.551,3.545,190.952,159.341,166.998
0.562,37.548,3.544,3.539,190.972,159.318,166.988
0.564,37.583,3.537,3.535,190.993,159.292,166.979
0.565,37.622,3.532,3.531,191.017,159.262,166.969
0.567,37.667,3.528,3.529,191.044,159.228,166.958
0.569,37.718,3.526,3.528,191.075,159.189,166.947
0.571,37.777,3.526,3.527,191.111,159.145,166.934
0.572,37.843,3.526,3.527,191.153,159.095,166.921
0.574,37.919,3.526,3.526,191.200,159.038,166.907
0.576,38.005,3.525,3.525,191.255,158.974,166.892
0.578,38.102,3.524,3.523,191.318,158.902,166.875
0.580,38.210,3.522,3.522,191.389,158.822,166.857
0.581,38.328,3.522,3.521,191.468,158.735,166.838
0.583,38.454,3.524,3.523,191.552,158.643,166.819
0.585,38.586,3.529,3.529,191.640,158.548,166.799
0.587,38.721,3.539,3.539,191.731,158.450,166.779
0.588,38.856,3.553,3.553,191.822,158.352,166.760
0.590,38.991,3.572,3.572,191.914,158.255,166.742
0.592,39.122,3.593,3.594,192.003,158.160,166.725
0.594,39.247,3.617,3.617,192.088,158.070,166.710
0.595,39.364,3.642,3.642,192.168,157.985,166.698
0.597,39.471,3.668,3.668,192.242,157.908,166.687
0.599,39.566,3.694,3.694,192.307,157.839,166.680
0.601,39.647,3.719,3.720,192.362,157.781,166.675
0.602,39.712,3.745,3.745,192.408,157.734,166.674
0.604,39.766,3.770,3.770,192.444,157.695,166.676
0.606,39.809,3.795,3.795,192.475,157.665,166.681
0.608,39.844,3.819,3.818,192.500,157.641,166.687
0.610,39.875,3.841,3.841,192.522,157.621,166.696
0.611,39.902,3.863,3.863,192.542,157.605,166.705
0.613,39.929,3.883,3.883,192.562,157.591,166.715
0.615,39.957,3.900,3.900,192.584,157.577,166.726
0.617,39.988,3.916,3.916,192.609,157.562,166.736
0.618,40.025,3.928,3.929,192.640,157.544,166.746
0.620,40.069,3.939,3.940,192.677,157.522,166.755
0.622,40.123,3.949,3.950,192.723,157.495,166.763
0.624,40.189,3.958,3.959,192.779,157.461,166.769
0.625,40.266,3.967,3.969,192.844,157.420,166.774
0.627,40.353,3.978,3.980,192.917,157.374,166.777
0.629,40.447,3.990,3.991,192.997,157.323,166.780
0.631,40.548,4.004,4.005,193.082,157.269,166.783
0.633,40.654,4.020,4.020,193.172,157.212,166.785
0.634,40.763,4.038,4.038,193.263,157.153,166.789
0.636,40.873,4.058,4.058,193.356,157.094,166.793
0.638,40.983,4.082,4.082,193.448,157.035,166.799
0.640,41.091,4.107,4.107,193.539,156.977,166.806
0.641,41.195,4.134,4.134,193.627,156.922,166.816
0.643,41.294,4.161,4.161,193.711,156.870,166.828
0.645,41.387,4.187,4.187,193.789,156.823,166.844
0.647,41.473,4.212,4.212,193.861,156.780,166.862
0.648,41.552,4.234,4.234,193.927,156.742,166.884
0.650,41.626,4.253,4.253,193.988,156.707,166.908
0.652,41.696,4.269,4.269,194.045,156.676,166.933
0.654,41.763,4.281,4.282,194.099,156.648,166.961
0.655,41.827,4.290,4.290,194.151,156.622,166.989
0.657,41.890,4.293,4.293,194.201,156.598,167.019
0.659,41.953,4.292,4.292,194.251,156.575,167.048
0.661,42.015,4.289,4.288,194.301,156.554,167.077
0.663,42.077,4.284,4.284,194.353,156.532,167.106
0.664,42.141,4.280,4.280,194.406,156.510,167.134
0.666,42.207,4.278,4.278,194.462,156.487,167.160
0.668,42.276,4.279,4.279,194.521,156.464,167.185
0.670,42.347,4.285,4.285,194.584,156.439,167.207
0.671,42.419,4.293,4.294,194.648,156.414,167.228
0.673,42.490,4.305,4.306,194.713,156.389,167.246
0.675,42.559,4.319,4.319,194.776,156.366,167.263
0.677,42.625,4.334,4.335,194.836,156.344,167.277
0.678,42.686,4.351,4.350,194.893,156.325,167.289
0.680,42.741,4.368,4.366,194.944,156.309,167.300
0.682,42.788,4.384,4.382,194.988,156.297,167.308
0.684,42.825,4.399,4.396,195.024,156.289,167.314
0.686,42.851,4.411,4.409,195.051,156.287,167.318
0.687,42.867,4.419,4.420,195.066,156.291,167.319
0.689,42.879,4.423,4.427,195.069,156.302,167.319
0.691,42.899,4.424,4.433,195.059,156.320,167.317
0.693,42.929,4.423,4.438,195.039,156.342,167.313
0.694,42.965,4.420,4.441,195.013,156.367,167.308
0.696,43.003,4.417,4.445,194.985,156.392,167.303
0.698,43.038,4.415,4.449,194.959,156.414,167.299
0.700,43.066,4.413,4.453,194.937,156.432,167.295
0.701,43.083,4.412,4.457,194.925,156.443,167.293
0.703,43.085,4.411,4.459,194.925,156.445,167.293
0.705,43.104,4.410,4.459,194.941,156.435,167.296
0.707,43.148,4.409,4.456,194.977,156.411,167.303
0.708,43.221,4.408,4.450,195.037,156.371,167.314
0.710,43.327,4.408,4.442,195.124,156.312,167.329
0.712,43.471,4.414,4.438,195.243,156.232,167.350
0.714,43.653,4.427,4.442,195.392,156.132,167.375
0.716,43.867,4.452,4.458,195.569,156.015,167.403
0.717,44.109,4.490,4.490,195.770,155.884,167.433
0.719,44.375,4.546,4.541,195.993,155.743,167.463
0.721,44.658,4.618,4.612,196.233,155.595,167.490
