"T","Distance","Radius","FreeRadius","X","Y","Z"
0.000,0.000,1.229,1.229,172.296,160.772,181.043
0.002,0.228,1.324,1.324,172.355,160.580,180.935
0.004,0.454,1.420,1.420,172.413,160.390,180.828
0.005,0.674,1.518,1.518,172.468,160.204,180.722
0.007,0.888,1.618,1.618,172.521,160.025,180.619
0.009,1.092,1.721,1.721,172.568,159.853,180.519
0.011,1.284,1.828,1.828,172.610,159.693,180.423
0.012,1.461,1.937,1.937,172.645,159.545,180.331
0.014,1.623,2.044,2.044,172.672,159.411,180.245
0.016,1.765,2.141,2.141,172.690,159.295,180.165
0.018,1.888,2.224,2.224,172.697,159.197,180.092
0.019,1.989,2.288,2.288,172.693,159.120,180.026
0.021,2.069,2.325,2.325,172.677,159.066,179.969
0.023,2.132,2.338,2.338,172.651,159.032,179.923
0.025,2.181,2.333,2.333,172.621,159.015,179.888
0.027,2.219,2.316,2.316,172.591,159.009,179.867
0.028,2.244,2.294,2.294,172.565,159.012,179.861
0.030,2.265,2.273,2.273,172.550,159.018,179.873
0.032,2.297,2.258,2.258,172.550,159.024,179.905
0.034,2.353,2.249,2.249,172.569,159.024,179.958
0.035,2.441,2.244,2.244,172.613,159.016,180.034
0.037,2.568,2.240,2.240,172.687,158.993,180.135
0.039,2.740,2.235,2.235,172.794,158.953,180.262
0.041,2.963,2.227,2.227,172.941,158.891,180.419
0.042,3.238,2.216,2.216,173.127,158.807,180.603
0.044,3.554,2.208,2.208,173.344,158.703,180.809
0.046,3.903,2.212,2.212,173.585,158.585,181.031
0.048,4.273,2.234,2.234,173.841,158.457,181.265
0.050,4.655,2.282,2.282,174.107,158.322,181.504
0.051,5.039,2.364,2.364,174.373,158.184,181.744
0.053,5.413,2.476,2.476,174.632,158.049,181.978
0.055,5.769,2.604,2.604,174.877,157.919,182.201
0.057,6.095,2.734,2.734,175.100,157.800,182.407
0.058,6.382,2.851,2.851,175.293,157.695,182.592
0.060,6.620,2.939,2.939,175.448,157.608,182.749
0.062,6.802,2.987,2.987,175.561,157.542,182.875
0.064,6.933,2.998,2.998,175.636,157.496,182.973
0.065,7.020,2.983,2.983,175.678,157.468,183.044
0.067,7.072,2.957,2.957,175.692,157.455,183.092
0.069,7.102,2.931,2.931,175.685,157.455,183.121
0.071,7.131,2.917,2.917,175.660,157.466,183.133
0.073,7.172,2.925,2.925,175.625,157.486,183.131
0.074,7.223,2.950,2.950,175.583,157.513,183.119
0.076,7.279,2.985,2.985,175.541,157.544,183.099
0.078,7.334,3.026,3.026,175.504,157.577,183.075
0.080,7.384,3.063,3.063,175.478,157.611,183.050
0.081,7.425,3.092,3.092,175.466,157.643,183.026
0.083,7.461,3.110,3.110,175.471,157.672,183.005
0.085,7.499,3.117,3.117,175.490,157.698,182.987
0.087,7.542,3.116,3.116,175.523,157.721,182.971
0.088,7.592,3.110,3.110,175.567,157.741,182.959
0.090,7.651,3.100,3.100,175.623,157.758,182.949
0.092,7.717,3.089,3.089,175.688,157.771,182.943
0.094,7.791,3.078,3.078,175.761,157.780,182.940
0.096,7.871,3.065,3.065,175.841,157.784,182.940
0.097,7.956,3.051,3.051,175.926,157.785,182.944
0.099,8.047,3.035,3.035,176.016,157.781,182.952
0.101,8.141,3.015,3.015,176.109,157.772,182.964
0.103,8.238,2.993,2.993,176.204,157.759,182.979
0.104,8.337,2.969,2.969,176.300,157.741,182.997
0.106,8.437,2.943,2.943,176.396,157.720,183.016
0.108,8.537,2.915,2.915,176.491,157.696,183.036
0.110,8.637,2.888,2.888,176.585,157.669,183.055
0.112,8.734,2.861,2.861,176.676,157.639,183.074
0.113,8.829,2.834,2.834,176.764,157.608,183.089
0.115,8.919,2.808,2.808,176.847,157.576,183.102
0.117,9.005,2.780,2.780,176.926,157.543,183.110
0.119,9.085,2.750,2.750,176.998,157.510,183.114
0.120,9.158,2.718,2.718,177.064,157.476,183.111
0.122,9.226,2.681,2.681,177.122,157.443,183.102
0.124,9.289,2.641,2.641,177.175,157.412,183.087
0.126,9.350,2.603,2.603,177.225,157.382,183.069
0.127,9.410,2.568,2.568,177.273,157.353,183.048
0.129,9.469,2.542,2.542,177.321,157.327,183.026
0.131,9.528,2.527,2.527,177.372,157.304,183.005
0.133,9.590,2.527,2.527,177.426,157.284,182.985
0.135,9.655,2.536,2.536,177.486,157.267,182.968
0.136,9.725,2.547,2.547,177.554,157.255,182.956
0.138,9.803,2.552,2.552,177.632,157.247,182.950
0.140,9.893,2.543,2.543,177.722,157.243,182.951
0.142,9.995,2.512,2.512,177.824,157.245,182.960
0.143,10.111,2.455,2.455,177.938,157.251,182.975
0.145,10.236,2.382,2.382,178.062,157.260,182.992
0.147,10.368,2.303,2.303,178.193,157.269,183.009
0.149,10.505,2.230,2.230,178.329,157.277,183.021
0.150,10.645,2.172,2.172,178.468,157.284,183.026
0.152,10.786,2.141,2.141,178.609,157.286,183.020
0.154,10.927,2.139,2.139,178.748,157.283,183.000
0.156,11.068,2.154,2.154,178.885,157.273,182.963
0.158,11.213,2.176,2.176,179.016,157.255,182.905
0.159,11.364,2.194,2.194,179.139,157.227,182.822
0.161,11.527,2.196,2.196,179.253,157.187,182.713
0.163,11.704,2.171,2.171,179.357,157.137,182.578
0.165,11.895,2.124,2.124,179.451,157.079,182.422
0.166,12.097,2.064,2.064,179.536,157.016,182.250
0.168,12.305,2.004,2.004,179.612,156.952,182.067
0.170,12.516,1.953,1.953,179.680,156.888,181.878
0.172,12.724,1.923,1.923,179.740,156.828,181.688
0.173,12.925,1.922,1.922,179.792,156.776,181.501
0.175,13.114,1.943,1.943,179.838,156.732,181.323
0.177,13.287,1.976,1.976,179.877,156.702,181.158
0.179,13.438,2.011,2.011,179.910,156.686,181.012
0.181,13.564,2.038,2.038,179.938,156.689,180.888
0.182,13.668,2.046,2.046,179.962,156.711,180.790
0.184,13.758,2.031,2.031,179.986,156.748,180.712
0.186,13.842,1.998,1.998,180.012,156.798,180.649
0.188,13.927,1.956,1.956,180.046,156.856,180.597
0.189,14.018,1.910,1.910,180.090,156.920,180.550
0.191,14.117,1.867,1.867,180.149,156.986,180.504
0.193,14.228,1.834,1.834,180.225,157.049,180.455
0.195,14.356,1.814,1.814,180.324,157.108,180.396
0.196,14.508,1.806,1.806,180.447,157.158,180.324
0.198,14.689,1.808,1.808,180.599,157.196,180.233
0.200,14.908,1.820,1.820,180.784,157.218,180.118
0.202,15.169,1.839,1.839,181.004,157.221,179.977
0.204,15.468,1.867,1.867,181.253,157.207,179.813
0.205,15.798,1.906,1.906,181.526,157.177,179.630
0.207,16.149,1.961,1.961,181.815,157.132,179.436
0.209,16.515,2.038,2.038,182.115,157.073,179.234
0.211,16.888,2.141,2.141,182.418,157.002,179.030
0.212,17.258,2.277,2.277,182.719,156.920,178.829
0.214,17.618,2.444,2.444,183.010,156.830,178.638
0.216,17.961,2.632,2.632,183.286,156.731,178.460
0.218,18.278,2.825,2.825,183.539,156.625,178.301
0.219,18.561,3.011,3.011,183.763,156.515,178.167
0.221,18.806,3.175,3.175,183.953,156.401,178.063
0.223,19.014,3.304,3.304,184.108,156.284,177.987
0.225,19.194,3.395,3.395,184.232,156.166,177.936
0.227,19.351,3.459,3.459,184.330,156.046,177.907
0.228,19.494,3.506,3.506,184.405,155.925,177.895
0.230,19.627,3.547,3.547,184.462,155.804,177.897
0.232,19.755,3.592,3.592,184.504,155.685,177.909
0.234,19.878,3.652,3.652,184.535,155.566,177.927
0.235,19.999,3.727,3.727,184.560,155.450,177.948
0.237,20.115,3.811,3.811,184.582,155.337,177.968
0.239,20.228,3.900,3.900,184.605,155.228,177.982
0.241,20.337,3.987,3.987,184.634,155.123,177.988
0.242,20.443,4.067,4.067,184.669,155.023,177.984
0.244,20.547,4.137,4.137,184.709,154.929,177.970
0.246,20.648,4.197,4.197,184.754,154.840,177.949
0.248,20.746,4.250,4.250,184.802,154.759,177.922
0.250,20.841,4.298,4.298,184.850,154.684,177.890
0.251,20.930,4.342,4.342,184.898,154.618,177.854
0.253,21.014,4.385,4.385,184.944,154.559,177.816
0.255,21.089,4.427,4.427,184.987,154.510,177.778
0.257,21.156,4.467,4.467,185.025,154.470,177.741
0.258,21.212,4.504,4.504,185.057,154.440,177.706
0.260,21.256,4.534,4.534,185.080,154.420,177.675
0.262,21.288,4.558,4.558,185.096,154.410,177.648
0.264,21.311,4.572,4.572,185.103,154.409,177.627
0.265,21.328,4.578,4.578,185.105,154.412,177.610
0.267,21.340,4.579,4.579,185.103,154.418,177.600
0.269,21.348,4.576,4.576,185.097,154.422,177.595
0.271,21.355,4.572,4.572,185.091,154.423,177.596
0.273,21.366,4.569,4.569,185.085,154.418,177.604
0.274,21.387,4.570,4.570,185.080,154.403,177.617
0.276,21.421,4.574,4.574,185.079,154.376,177.638
0.278,21.471,4.581,4.581,185.083,154.333,177.665
0.280,21.541,4.588,4.588,185.094,154.273,177.699
0.281,21.634,4.597,4.597,185.112,154.193,177.741
0.283,21.749,4.605,4.605,185.138,154.092,177.790
0.285,21.884,4.612,4.612,185.173,153.974,177.846
0.287,22.038,4.620,4.620,185.215,153.841,177.910
0.288,22.208,4.629,4.629,185.265,153.695,177.982
0.290,22.394,4.642,4.642,185.323,153.537,178.062
0.292,22.593,4.658,4.658,185.388,153.371,178.150
0.294,22.803,4.680,4.680,185.460,153.198,178.246
0.296,23.023,4.709,4.709,185.539,153.021,178.350
0.297,23.252,4.742,4.742,185.625,152.842,178.462
0.299,23.487,4.780,4.780,185.718,152.662,178.583
0.301,23.728,4.823,4.823,185.817,152.485,178.712
0.303,23.972,4.870,4.870,185.921,152.311,178.849
0.304,24.218,4.919,4.919,186.029,152.143,178.992
0.306,24.461,4.972,4.972,186.139,151.981,179.137
0.308,24.700,5.026,5.026,186.248,151.827,179.283
0.310,24.931,5.081,5.081,186.356,151.682,179.427
0.312,25.152,5.137,5.137,186.459,151.547,179.567
0.313,25.358,5.192,5.192,186.557,151.424,179.702
0.315,25.548,5.247,5.247,186.647,151.314,179.827
0.317,25.719,5.298,5.298,186.728,151.219,179.943
0.319,25.866,5.344,5.344,186.798,151.139,180.045
0.320,25.987,5.383,5.383,186.854,151.076,180.132
0.322,26.081,5.413,5.413,186.896,151.030,180.202
0.324,26.150,5.432,5.432,186.925,151.000,180.257
0.326,26.197,5.440,5.440,186.942,150.982,180.298
0.327,26.227,5.439,5.439,186.948,150.975,180.325
0.329,26.243,5.432,5.432,186.945,150.977,180.341
0.331,26.258,5.423,5.423,186.933,150.985,180.346
0.333,26.280,5.413,5.413,186.914,150.996,180.342
0.335,26.310,5.405,5.405,186.890,151.009,180.330
0.336,26.347,5.400,5.400,186.861,151.022,180.312
0.338,26.389,5.394,5.394,186.829,151.031,180.287
0.340,26.434,5.385,5.386,186.794,151.035,180.259
0.342,26.481,5.372,5.372,186.759,151.032,180.227
0.343,26.529,5.351,5.351,186.723,151.021,180.197
0.345,26.576,5.321,5.321,186.689,151.002,180.170
0.347,26.621,5.286,5.285,186.657,150.976,180.152
0.349,26.666,5.248,5.246,186.628,150.942,180.147
0.350,26.715,5.212,5.210,186.603,150.901,180.157
0.352,26.776,5.181,5.180,186.583,150.852,180.187
0.354,26.855,5.159,5.160,186.569,150.797,180.241
0.356,26.958,5.147,5.150,186.563,150.734,180.323
0.358,27.091,5.140,5.145,186.564,150.663,180.436
0.359,27.259,5.132,5.137,186.574,150.586,180.584
0.361,27.465,5.115,5.120,186.594,150.502,180.772
0.363,27.707,5.085,5.087,186.623,150.411,180.994
0.365,27.977,5.035,5.031,186.659,150.314,181.244
0.366,28.267,4.966,4.955,186.699,150.211,181.512
0.368,28.568,4.884,4.866,186.741,150.102,181.789
0.370,28.872,4.794,4.773,186.783,149.988,182.068
0.372,29.170,4.702,4.685,186.822,149.869,182.338
0.373,29.455,4.615,4.612,186.856,149.746,182.593
0.375,29.719,4.538,4.560,186.882,149.618,182.822
0.377,29.955,4.472,4.527,186.899,149.487,183.017
0.379,30.159,4.416,4.508,186.905,149.352,183.171
0.381,30.331,4.370,4.497,186.895,149.214,183.273
0.382,30.482,4.333,4.487,186.871,149.073,183.321
0.384,30.630,4.305,4.475,186.835,148.929,183.321
0.386,30.791,4.285,4.454,186.788,148.781,183.281
0.388,30.968,4.271,4.428,186.733,148.629,183.207
0.389,31.163,4.263,4.398,186.674,148.473,183.106
0.391,31.374,4.259,4.367,186.611,148.312,182.986
0.393,31.595,4.257,4.339,186.549,148.146,182.853
0.395,31.824,4.257,4.314,186.489,147.974,182.716
0.396,32.054,4.257,4.295,186.434,147.796,182.580
0.398,32.282,4.258,4.282,186.386,147.612,182.453
0.400,32.506,4.260,4.273,186.348,147.422,182.342
0.402,32.724,4.264,4.269,186.322,147.225,182.252
0.404,32.937,4.269,4.270,186.307,147.024,182.184
0.405,33.146,4.276,4.275,186.300,146.821,182.133
0.407,33.350,4.286,4.283,186.302,146.620,182.099
0.409,33.548,4.298,4.295,186.309,146.423,182.079
0.411,33.739,4.311,4.309,186.320,146.233,182.070
0.412,33.920,4.327,4.326,186.334,146.052,182.071
0.414,34.090,4.345,4.345,186.349,145.883,182.078
0.416,34.244,4.364,4.364,186.364,145.730,182.089
0.418,34.381,4.384,4.384,186.376,145.594,182.103
0.419,34.497,4.403,4.404,186.385,145.480,182.117
0.421,34.589,4.421,4.421,186.388,145.388,182.128
0.423,34.660,4.436,4.436,186.385,145.318,182.136
0.425,34.713,4.447,4.447,186.377,145.265,182.143
0.427,34.754,4.453,4.453,186.363,145.228,182.148
0.428,34.787,4.454,4.454,186.344,145.201,182.152
0.430,34.818,4.449,4.448,186.319,145.182,182.157
0.432,34.852,4.436,4.436,186.290,145.166,182.163
0.434,34.890,4.417,4.417,186.256,145.151,182.170
0.435,34.934,4.389,4.389,186.218,145.132,182.179
0.437,34.986,4.355,4.355,186.175,145.106,182.192
0.439,35.047,4.317,4.317,186.128,145.069,182.208
0.441,35.122,4.276,4.276,186.077,145.018,182.228
0.442,35.211,4.237,4.237,186.022,144.952,182.253
0.444,35.313,4.201,4.201,185.965,144.874,182.283
0.446,35.424,4.170,4.170,185.907,144.785,182.315
0.448,35.542,4.144,4.145,185.848,144.688,182.349
0.450,35.665,4.123,4.123,185.790,144.587,182.386
0.451,35.789,4.103,4.103,185.733,144.483,182.423
0.453,35.912,4.085,4.085,185.679,144.379,182.461
0.455,36.031,4.066,4.066,185.629,144.277,182.499
0.457,36.143,4.046,4.046,185.584,144.181,182.536
0.458,36.246,4.026,4.025,185.544,144.093,182.571
0.460,36.337,4.005,4.005,185.512,144.015,182.603
0.462,36.413,3.985,3.985,185.487,143.950,182.633
0.464,36.477,3.967,3.967,185.468,143.895,182.660
0.465,36.530,3.950,3.950,185.456,143.850,182.686
0.467,36.575,3.935,3.936,185.450,143.813,182.710
0.469,36.613,3.922,3.924,185.448,143.783,182.735
0.471,36.648,3.913,3.914,185.449,143.759,182.759
0.473,36.682,3.906,3.908,185.454,143.738,182.785
0.474,36.715,3.903,3.904,185.461,143.719,182.812
0.476,36.750,3.904,3.903,185.470,143.702,182.841
0.478,36.789,3.907,3.904,185.479,143.684,182.874
0.480,36.831,3.910,3.906,185.488,143.663,182.909
0.481,36.878,3.911,3.909,185.497,143.640,182.950
0.483,36.931,3.908,3.911,185.505,143.612,182.994
0.485,36.990,3.899,3.911,185.511,143.579,183.042
0.487,37.055,3.883,3.909,185.517,143.541,183.094
0.488,37.127,3.861,3.905,185.522,143.495,183.150
0.490,37.206,3.834,3.897,185.525,143.443,183.209
0.492,37.293,3.806,3.887,185.528,143.382,183.271
0.494,37.388,3.777,3.874,185.529,143.312,183.336
0.496,37.492,3.750,3.858,185.530,143.233,183.404
0.497,37.606,3.726,3.839,185.529,143.143,183.474
0.499,37.731,3.704,3.818,185.528,143.042,183.547
0.501,37.866,3.685,3.797,185.525,142.930,183.621
0.503,38.012,3.669,3.777,185.521,142.805,183.698
0.504,38.168,3.654,3.759,185.517,142.671,183.777
0.506,38.332,3.643,3.745,185.512,142.528,183.858
0.508,38.504,3.633,3.733,185.507,142.378,183.942
0.510,38.683,3.626,3.723,185.502,142.222,184.028
0.512,38.866,3.621,3.715,185.497,142.062,184.116
0.513,39.052,3.618,3.706,185.493,141.899,184.207
0.515,39.242,3.617,3.697,185.490,141.734,184.301
0.517,39.432,3.619,3.687,185.488,141.570,184.398
0.519,39.623,3.623,3.676,185.487,141.407,184.497
0.520,39.813,3.630,3.667,185.488,141.247,184.600
0.522,40.001,3.639,3.660,185.491,141.092,184.705
0.524,40.184,3.652,3.659,185.497,140.942,184.812
0.526,40.363,3.667,3.665,185.508,140.799,184.918
0.527,40.534,3.684,3.677,185.524,140.664,185.022
0.529,40.697,3.704,3.696,185.546,140.538,185.122
0.531,40.850,3.724,3.717,185.576,140.422,185.218
0.533,40.993,3.743,3.739,185.615,140.318,185.307
0.535,41.124,3.761,3.760,185.663,140.226,185.387
0.536,41.245,3.777,3.778,185.722,140.147,185.458
0.538,41.357,3.789,3.791,185.793,140.084,185.518
0.540,41.465,3.795,3.797,185.876,140.036,185.564
0.542,41.572,3.793,3.795,185.974,140.005,185.597
0.543,41.684,3.782,3.783,186.082,139.989,185.620
0.545,41.801,3.759,3.759,186.199,139.987,185.637
0.547,41.924,3.723,3.722,186.320,139.995,185.652
0.549,42.050,3.675,3.674,186.443,140.013,185.672
0.550,42.177,3.618,3.617,186.564,140.037,185.700
0.552,42.303,3.554,3.553,186.681,140.066,185.740
0.554,42.431,3.486,3.486,186.790,140.097,185.799
0.556,42.561,3.417,3.417,186.887,140.128,185.880
0.558,42.701,3.349,3.349,186.970,140.157,185.988
0.559,42.857,3.281,3.282,187.036,140.183,186.128
0.561,43.040,3.215,3.215,187.080,140.202,186.304
0.563,43.252,3.148,3.149,187.105,140.215,186.515
0.565,43.489,3.083,3.083,187.112,140.222,186.752
0.566,43.746,3.018,3.018,187.105,140.224,187.008
0.568,44.016,2.954,2.954,187.085,140.222,187.278
0.570,44.292,2.895,2.894,187.057,140.216,187.552
0.572,44.567,2.843,2.842,187.024,140.208,187.825
0.573,44.834,2.801,2.800,186.987,140.197,188.089
0.575,45.084,2.771,2.771,186.950,140.186,188.336
0.577,45.311,2.757,2.758,186.916,140.175,188.560
0.579,45.507,2.756,2.758,186.887,140.164,188.753
0.581,45.664,2.763,2.766,186.868,140.154,188.909
0.582,45.780,2.775,2.779,186.858,140.146,189.024
0.584,45.860,2.788,2.790,186.856,140.140,189.104
0.586,45.910,2.796,2.796,186.860,140.136,189.154
0.588,45.938,2.797,2.793,186.870,140.134,189.180
0.589,45.952,2.793,2.783,186.881,140.134,189.188
0.591,45.966,2.784,2.771,186.894,140.136,189.184
0.593,45.982,2.775,2.761,186.905,140.141,189.173
0.595,45.998,2.767,2.759,186.914,140.148,189.162
0.596,46.010,2.763,2.768,186.918,140.157,189.155
0.598,46.023,2.765,2.789,186.915,140.168,189.159
0.600,46.050,2.770,2.820,186.904,140.182,189.179
0.602,46.098,2.780,2.856,186.883,140.199,189.220
0.604,46.168,2.792,2.893,186.853,140.217,189.280
0.605,46.255,2.806,2.926,186.817,140.236,189.357
0.607,46.357,2.822,2.952,186.774,140.256,189.447
0.609,46.471,2.837,2.970,186.727,140.276,189.549
0.611,46.592,2.850,2.982,186.678,140.294,189.658
0.612,46.719,2.859,2.990,186.627,140.311,189.773
0.614,46.847,2.862,2.995,186.577,140.326,189.890
0.616,46.974,2.857,3.000,186.529,140.338,190.007
0.618,47.096,2.844,3.007,186.485,140.346,190.120
0.619,47.211,2.823,3.014,186.445,140.350,190.228
0.621,47.315,2.799,3.021,186.412,140.349,190.327
0.623,47.409,2.774,3.027,186.385,140.343,190.417
0.625,47.493,2.752,3.031,186.365,140.332,190.497
0.627,47.567,2.735,3.032,186.349,140.318,190.569
0.628,47.634,2.725,3.029,186.338,140.300,190.632
0.630,47.694,2.723,3.022,186.332,140.279,190.687
0.632,47.747,2.726,3.013,186.328,140.256,190.735
0.634,47.794,2.734,3.000,186.327,140.231,190.775
0.635,47.837,2.745,2.985,186.328,140.204,190.809
0.637,47.876,2.759,2.966,186.331,140.176,190.835
0.639,47.911,2.774,2.947,186.334,140.148,190.856
0.641,47.943,2.790,2.927,186.338,140.120,190.870
0.642,47.972,2.807,2.909,186.341,140.092,190.879
0.644,47.998,2.823,2.894,186.344,140.066,190.885
0.646,48.021,2.838,2.884,186.346,140.044,190.889
0.648,48.040,2.852,2.880,186.349,140.026,190.893
0.650,48.053,2.862,2.882,186.351,140.014,190.899
0.651,48.063,2.865,2.888,186.352,140.009,190.907
0.653,48.076,2.858,2.895,186.353,140.013,190.920
0.655,48.099,2.840,2.902,186.354,140.026,190.939
0.657,48.135,2.805,2.907,186.355,140.049,190.966
0.658,48.187,2.755,2.909,186.355,140.085,191.003
0.660,48.256,2.694,2.910,186.355,140.135,191.051
0.662,48.343,2.628,2.913,186.354,140.197,191.112
0.664,48.445,2.566,2.919,186.356,140.269,191.186
0.665,48.562,2.513,2.933,186.361,140.344,191.273
0.667,48.689,2.478,2.955,186.372,140.420,191.375
0.669,48.826,2.460,2.984,186.391,140.489,191.493
0.671,48.974,2.453,3.008,186.419,140.548,191.625
0.673,49.135,2.449,3.016,186.459,140.592,191.774
0.674,49.310,2.439,2.996,186.513,140.616,191.940
0.676,49.506,2.415,2.937,186.581,140.614,192.123
0.678,49.726,2.370,2.827,186.668,140.583,192.323
0.680,49.979,2.308,2.677,186.773,140.516,192.543
0.681,50.268,2.240,2.510,186.900,140.411,192.780
0.683,50.591,2.180,2.348,187.045,140.270,193.033
0.685,50.942,2.139,2.215,187.204,140.100,193.295
0.687,51.313,2.130,2.135,187.374,139.907,193.562
0.688,51.695,2.162,2.125,187.550,139.697,193.828
0.690,52.079,2.226,2.174,187.728,139.477,194.088
0.692,52.457,2.311,2.262,187.905,139.253,194.336
0.694,52.821,2.401,2.367,188.075,139.031,194.568
0.696,53.160,2.485,2.471,188.235,138.817,194.778
0.697,53.467,2.549,2.552,188.381,138.619,194.961
0.699,53.732,2.587,2.599,188.509,138.442,195.112
0.701,53.948,2.604,2.620,188.615,138.292,195.225
0.703,54.113,2.610,2.625,188.698,138.171,195.300
0.704,54.236,2.614,2.624,188.760,138.073,195.343
0.706,54.327,2.623,2.626,188.804,137.995,195.357
0.708,54.398,2.647,2.643,188.833,137.931,195.347
0.710,54.461,2.685,2.676,188.849,137.878,195.319
0.712,54.525,2.732,2.719,188.855,137.830,195.276
0.713,54.595,2.779,2.765,188.853,137.783,195.224
0.715,54.672,2.819,2.808,188.846,137.732,195.167
0.717,54.755,2.844,2.842,188.836,137.672,195.110
0.719,54.844,2.850,2.861,188.826,137.600,195.059
0.720,54.944,2.837,2.867,188.818,137.510,195.016
