"T","Distance","Radius","FreeRadius","X","Y","Z"
0.000,0.000,2.617,2.617,187.441,222.285,215.602
0.001,0.057,2.630,2.630,187.470,222.243,215.630
0.003,0.112,2.642,2.642,187.497,222.204,215.656
0.004,0.161,2.653,2.653,187.522,222.168,215.679
0.006,0.203,2.660,2.660,187.543,222.138,215.699
0.007,0.234,2.664,2.664,187.559,222.116,215.713
0.008,0.252,2.662,2.662,187.569,222.102,215.720
0.010,0.255,2.655,2.655,187.572,222.101,215.718
0.011,0.272,2.641,2.641,187.566,222.112,215.707
0.012,0.309,2.621,2.621,187.550,222.138,215.685
0.014,0.371,2.597,2.597,187.523,222.181,215.651
0.015,0.458,2.571,2.571,187.484,222.242,215.603
0.017,0.574,2.546,2.546,187.432,222.324,215.539
0.018,0.719,2.523,2.523,187.366,222.426,215.461
0.019,0.887,2.504,2.504,187.291,222.545,215.369
0.021,1.073,2.491,2.491,187.210,222.676,215.265
0.022,1.272,2.485,2.485,187.125,222.817,215.151
0.024,1.480,2.485,2.485,187.041,222.962,215.029
0.025,1.690,2.488,2.488,186.960,223.108,214.901
0.026,1.899,2.494,2.494,186.886,223.251,214.769
0.028,2.101,2.502,2.502,186.822,223.388,214.634
0.029,2.294,2.511,2.511,186.772,223.515,214.498
0.031,2.472,2.518,2.518,186.738,223.627,214.363
0.032,2.635,2.524,2.524,186.725,223.722,214.231
0.033,2.782,2.528,2.528,186.734,223.795,214.104
0.035,2.919,2.532,2.532,186.765,223.849,213.982
0.036,3.051,2.537,2.537,186.814,223.889,213.866
0.037,3.182,2.543,2.543,186.876,223.921,213.755
0.039,3.313,2.552,2.552,186.948,223.949,213.651
0.040,3.442,2.563,2.563,187.027,223.979,213.552
0.042,3.570,2.579,2.579,187.108,224.016,213.460
0.043,3.697,2.597,2.597,187.187,224.066,213.374
0.044,3.825,2.617,2.617,187.262,224.132,213.295
0.046,3.957,2.636,2.636,187.327,224.222,213.224
0.047,4.101,2.655,2.655,187.380,224.339,213.159
0.049,4.266,2.671,2.671,187.416,224.490,213.102
0.050,4.459,2.683,2.683,187.434,224.676,213.052
0.051,4.678,2.689,2.689,187.437,224.890,213.007
0.053,4.918,2.692,2.692,187.429,225.126,212.966
0.054,5.170,2.692,2.692,187.417,225.375,212.927
0.055,5.427,2.694,2.694,187.403,225.629,212.888
0.057,5.681,2.698,2.698,187.393,225.880,212.848
0.058,5.926,2.709,2.709,187.391,226.120,212.803
0.060,6.153,2.729,2.729,187.402,226.341,212.754
0.061,6.358,2.761,2.761,187.430,226.536,212.697
0.062,6.539,2.805,2.805,187.481,226.697,212.630
0.064,6.700,2.861,2.861,187.559,226.815,212.553
0.065,6.856,2.928,2.928,187.668,226.883,212.464
0.067,7.030,3.005,3.005,187.807,226.901,212.361
0.068,7.229,3.091,3.091,187.970,226.877,212.249
0.069,7.453,3.186,3.186,188.149,226.821,212.128
0.071,7.694,3.287,3.287,188.339,226.741,212.002
0.072,7.945,3.394,3.394,188.532,226.645,211.873
0.074,8.196,3.502,3.502,188.721,226.543,211.742
0.075,8.438,3.608,3.608,188.899,226.444,211.613
0.076,8.661,3.708,3.708,189.061,226.355,211.488
0.078,8.855,3.797,3.797,189.198,226.286,211.369
0.079,9.014,3.872,3.872,189.304,226.246,211.258
0.080,9.135,3.927,3.927,189.373,226.243,211.158
0.082,9.235,3.961,3.961,189.398,226.285,211.071
0.083,9.349,3.973,3.973,189.384,226.368,210.995
0.085,9.492,3.970,3.970,189.339,226.487,210.928
0.086,9.665,3.956,3.956,189.271,226.634,210.869
0.087,9.862,3.935,3.935,189.187,226.805,210.815
0.089,10.076,3.914,3.914,189.096,226.991,210.764
0.090,10.298,3.895,3.895,189.004,227.187,210.714
0.092,10.521,3.885,3.885,188.920,227.386,210.662
0.093,10.735,3.886,3.886,188.851,227.582,210.608
0.094,10.936,3.896,3.896,188.806,227.768,210.547
0.096,11.120,3.917,3.917,188.792,227.938,210.479
0.097,11.289,3.948,3.948,188.817,228.086,210.401
0.098,11.453,3.988,3.988,188.884,228.208,210.313
0.100,11.623,4.038,4.038,188.986,228.308,210.221
0.101,11.802,4.096,4.096,189.114,228.391,210.128
0.103,11.988,4.161,4.161,189.262,228.461,210.040
0.104,12.175,4.226,4.226,189.421,228.524,209.963
0.105,12.358,4.282,4.282,189.582,228.584,209.901
0.107,12.531,4.322,4.322,189.739,228.645,209.860
0.108,12.690,4.339,4.339,189.882,228.712,209.845
0.110,12.836,4.324,4.324,190.004,228.790,209.861
0.111,12.978,4.270,4.270,190.097,228.883,209.913
0.112,13.135,4.170,4.170,190.153,228.997,210.007
0.114,13.331,4.032,4.032,190.163,229.135,210.146
0.115,13.578,3.864,3.864,190.129,229.297,210.330
0.117,13.872,3.677,3.677,190.058,229.479,210.549
0.118,14.206,3.481,3.481,189.955,229.675,210.798
0.119,14.569,3.285,3.285,189.828,229.883,211.067
0.121,14.952,3.100,3.100,189.684,230.097,211.350
0.122,15.344,2.935,2.935,189.528,230.312,211.639
0.123,15.735,2.794,2.794,189.368,230.525,211.925
0.125,16.114,2.674,2.674,189.211,230.732,212.202
0.126,16.471,2.574,2.574,189.063,230.926,212.461
0.128,16.793,2.493,2.493,188.932,231.105,212.696
0.129,17.072,2.428,2.428,188.823,231.264,212.897
0.130,17.298,2.378,2.378,188.742,231.398,213.060
0.132,17.475,2.341,2.341,188.687,231.510,213.185
0.133,17.608,2.315,2.315,188.655,231.601,213.277
0.135,17.703,2.298,2.298,188.642,231.672,213.338
0.136,17.767,2.290,2.290,188.645,231.727,213.372
0.137,17.810,2.287,2.287,188.660,231.766,213.383
0.139,17.846,2.287,2.287,188.683,231.792,213.374
0.140,17.887,2.290,2.290,188.711,231.806,213.348
0.141,17.936,2.293,2.293,188.741,231.811,213.309
0.143,17.992,2.294,2.294,188.768,231.809,213.261
0.144,18.051,2.296,2.296,188.789,231.801,213.206
0.146,18.111,2.298,2.298,188.802,231.790,213.149
0.147,18.169,2.302,2.302,188.804,231.777,213.092
0.148,18.224,2.309,2.309,188.798,231.765,213.038
0.150,18.275,2.321,2.321,188.788,231.756,212.990
0.151,18.318,2.338,2.338,188.777,231.753,212.948
0.153,18.351,2.363,2.363,188.769,231.758,212.917
0.154,18.376,2.391,2.391,188.765,231.774,212.897
0.155,18.406,2.419,2.419,188.770,231.802,212.892
0.157,18.454,2.443,2.443,188.787,231.846,212.904
0.158,18.530,2.458,2.458,188.819,231.907,212.936
0.160,18.639,2.460,2.460,188.868,231.989,212.988
0.161,18.786,2.445,2.445,188.939,232.093,213.065
0.162,18.975,2.409,2.409,189.033,232.221,213.168
0.164,19.204,2.352,2.352,189.150,232.371,213.294
0.165,19.463,2.282,2.282,189.284,232.539,213.438
0.166,19.744,2.203,2.203,189.432,232.720,213.596
0.168,20.040,2.123,2.123,189.587,232.908,213.763
0.169,20.341,2.047,2.047,189.747,233.099,213.933
0.171,20.641,1.982,1.982,189.907,233.288,214.101
0.172,20.930,1.934,1.934,190.061,233.471,214.263
0.173,21.200,1.907,1.907,190.206,233.643,214.413
0.175,21.443,1.898,1.898,190.337,233.798,214.547
0.176,21.652,1.903,1.903,190.449,233.933,214.660
0.178,21.817,1.919,1.919,190.539,234.042,214.746
0.179,21.934,1.944,1.944,190.602,234.122,214.802
0.180,22.008,1.972,1.972,190.643,234.176,214.834
0.182,22.048,2.002,2.002,190.664,234.208,214.845
0.183,22.063,2.028,2.028,190.670,234.221,214.843
0.184,22.076,2.052,2.052,190.664,234.219,214.831
0.186,22.101,2.072,2.072,190.651,234.205,214.815
0.187,22.131,2.087,2.087,190.634,234.184,214.800
0.189,22.162,2.097,2.097,190.617,234.160,214.793
0.190,22.191,2.103,2.103,190.604,234.134,214.798
0.191,22.223,2.102,2.102,190.599,234.113,214.821
0.193,22.271,2.095,2.095,190.606,234.098,214.866
0.194,22.348,2.083,2.083,190.627,234.094,214.940
0.196,22.458,2.070,2.070,190.665,234.102,215.043
0.197,22.596,2.058,2.058,190.717,234.120,215.170
0.198,22.757,2.051,2.051,190.778,234.146,215.316
0.200,22.934,2.051,2.051,190.848,234.179,215.475
0.201,23.122,2.061,2.061,190.922,234.217,215.644
0.202,23.315,2.085,2.085,190.999,234.258,215.817
0.204,23.508,2.122,2.122,191.075,234.299,215.989
0.205,23.693,2.170,2.170,191.146,234.340,216.154
0.207,23.865,2.223,2.223,191.212,234.379,216.309
0.208,24.018,2.278,2.278,191.268,234.413,216.447
0.209,24.146,2.331,2.331,191.311,234.441,216.564
0.211,24.245,2.378,2.378,191.340,234.461,216.656
0.212,24.314,2.414,2.414,191.356,234.474,216.723
0.214,24.359,2.438,2.438,191.361,234.481,216.767
0.215,24.384,2.449,2.449,191.357,234.483,216.791
0.216,24.395,2.450,2.450,191.348,234.481,216.798
0.218,24.410,2.443,2.443,191.336,234.476,216.789
0.219,24.436,2.431,2.431,191.324,234.469,216.768
0.221,24.469,2.414,2.414,191.315,234.462,216.737
0.222,24.509,2.395,2.395,191.310,234.455,216.698
0.223,24.554,2.376,2.376,191.313,234.450,216.653
0.225,24.603,2.358,2.358,191.327,234.449,216.606
0.226,24.657,2.341,2.341,191.353,234.451,216.559
0.227,24.718,2.325,2.325,191.394,234.458,216.514
0.229,24.787,2.310,2.310,191.446,234.469,216.471
0.230,24.861,2.296,2.296,191.507,234.484,216.430
0.232,24.939,2.285,2.285,191.573,234.502,216.393
0.233,25.017,2.276,2.276,191.641,234.522,216.360
0.234,25.094,2.269,2.269,191.708,234.544,216.331
0.236,25.165,2.264,2.264,191.771,234.567,216.307
0.237,25.229,2.261,2.261,191.828,234.591,216.289
0.239,25.283,2.261,2.261,191.874,234.614,216.276
0.240,25.323,2.264,2.264,191.908,234.637,216.270
0.241,25.351,2.269,2.269,191.925,234.658,216.270
0.243,25.372,2.276,2.276,191.923,234.678,216.278
0.244,25.401,2.286,2.286,191.904,234.695,216.292
0.245,25.440,2.295,2.295,191.872,234.709,216.310
0.247,25.484,2.303,2.303,191.835,234.720,216.330
0.248,25.528,2.307,2.307,191.796,234.728,216.350
0.250,25.566,2.306,2.306,191.762,234.733,216.367
0.251,25.593,2.296,2.296,191.738,234.734,216.379
0.252,25.603,2.276,2.276,191.730,234.731,216.383
0.254,25.618,2.246,2.246,191.743,234.724,216.378
0.255,25.663,2.206,2.206,191.783,234.712,216.361
0.257,25.743,2.160,2.160,191.854,234.695,216.331
0.258,25.864,2.110,2.110,191.964,234.674,216.284
0.259,26.030,2.061,2.061,192.115,234.647,216.219
0.261,26.238,2.014,2.014,192.303,234.616,216.138
0.262,26.478,1.973,1.973,192.522,234.582,216.045
0.264,26.744,1.941,1.941,192.765,234.547,215.941
0.265,27.028,1.918,1.918,193.024,234.511,215.832
0.266,27.322,1.902,1.902,193.294,234.476,215.718
0.268,27.620,1.894,1.894,193.567,234.444,215.604
0.269,27.913,1.892,1.892,193.836,234.414,215.493
0.270,28.194,1.894,1.894,194.096,234.389,215.387
0.272,28.456,1.899,1.899,194.338,234.371,215.290
0.273,28.691,1.907,1.907,194.557,234.359,215.205
0.275,28.893,1.917,1.917,194.746,234.356,215.135
0.276,29.057,1.928,1.928,194.900,234.361,215.080
0.277,29.188,1.940,1.940,195.024,234.375,215.040
0.279,29.290,1.953,1.953,195.121,234.395,215.013
0.280,29.369,1.966,1.966,195.193,234.422,214.995
0.282,29.431,1.980,1.980,195.245,234.454,214.987
0.283,29.480,1.993,1.993,195.279,234.489,214.984
0.284,29.524,2.006,2.006,195.300,234.528,214.986
0.286,29.566,2.019,2.019,195.309,234.568,214.990
0.287,29.608,2.030,2.030,195.311,234.610,214.995
0.288,29.649,2.040,2.040,195.309,234.652,214.998
0.290,29.690,2.049,2.049,195.307,234.692,214.998
0.291,29.729,2.055,2.055,195.307,234.731,214.992
0.293,29.768,2.060,2.060,195.311,234.767,214.980
0.294,29.807,2.062,2.062,195.320,234.800,214.961
0.295,29.849,2.062,2.062,195.336,234.829,214.935
0.297,29.895,2.059,2.059,195.358,234.854,214.902
0.298,29.949,2.055,2.055,195.387,234.873,214.862
0.300,30.012,2.049,2.049,195.425,234.887,214.814
0.301,30.085,2.041,2.041,195.472,234.895,214.757
0.302,30.171,2.032,2.032,195.529,234.896,214.693
0.304,30.271,2.022,2.022,195.597,234.890,214.620
0.305,30.386,2.011,2.011,195.676,234.875,214.538
0.307,30.517,2.001,2.001,195.767,234.852,214.447
0.308,30.664,1.992,1.992,195.871,234.821,214.348
0.309,30.824,1.984,1.984,195.985,234.783,214.242
0.311,30.991,1.980,1.980,196.105,234.742,214.133
0.312,31.161,1.979,1.979,196.229,234.701,214.025
0.313,31.329,1.983,1.983,196.354,234.663,213.919
0.315,31.490,1.992,1.992,196.476,234.630,213.820
0.316,31.639,2.005,2.005,196.592,234.606,213.730
0.318,31.772,2.019,2.019,196.700,234.592,213.652
0.319,31.886,2.034,2.034,196.795,234.594,213.590
0.320,31.980,2.047,2.047,196.876,234.612,213.546
0.322,32.056,2.058,2.058,196.938,234.651,213.524
0.323,32.130,2.063,2.063,196.979,234.712,213.526
0.325,32.220,2.064,2.064,196.999,234.796,213.553
0.326,32.334,2.058,2.058,197.000,234.899,213.601
0.327,32.470,2.049,2.049,196.988,235.017,213.668
0.329,32.624,2.037,2.037,196.964,235.146,213.749
0.330,32.791,2.023,2.023,196.933,235.281,213.841
0.331,32.964,2.007,2.007,196.899,235.419,213.940
0.333,33.139,1.992,1.992,196.865,235.556,214.044
0.334,33.310,1.978,1.978,196.834,235.687,214.148
0.336,33.470,1.966,1.966,196.810,235.809,214.249
0.337,33.614,1.955,1.955,196.797,235.917,214.344
0.338,33.738,1.946,1.946,196.798,236.007,214.429
0.340,33.840,1.938,1.938,196.817,236.076,214.502
0.341,33.925,1.932,1.932,196.853,236.126,214.561
0.343,34.000,1.928,1.928,196.902,236.158,214.608
0.344,34.074,1.925,1.925,196.962,236.177,214.646
0.345,34.148,1.924,1.924,197.030,236.185,214.674
0.347,34.225,1.924,1.924,197.104,236.187,214.694
0.348,34.303,1.924,1.924,197.181,236.184,214.709
0.350,34.380,1.923,1.923,197.257,236.181,214.718
0.351,34.454,1.921,1.921,197.331,236.180,214.723
0.352,34.523,1.916,1.916,197.400,236.185,214.727
0.354,34.585,1.909,1.909,197.460,236.199,214.729
0.355,34.641,1.899,1.899,197.510,236.225,214.731
0.356,34.696,1.886,1.886,197.547,236.265,214.735
0.358,34.755,1.871,1.871,197.572,236.318,214.740
0.359,34.822,1.854,1.854,197.589,236.383,214.745
0.361,34.898,1.835,1.835,197.599,236.458,214.749
0.362,34.982,1.816,1.816,197.604,236.541,214.753
0.363,35.073,1.797,1.797,197.606,236.632,214.755
0.365,35.169,1.778,1.778,197.606,236.728,214.756
0.366,35.269,1.760,1.760,197.608,236.829,214.754
0.368,35.372,1.742,1.742,197.612,236.932,214.748
0.369,35.477,1.725,1.725,197.621,237.036,214.740
0.370,35.583,1.708,1.708,197.636,237.140,214.727
0.372,35.689,1.692,1.692,197.661,237.241,214.709
0.373,35.796,1.677,1.677,197.694,237.341,214.687
0.374,35.904,1.663,1.663,197.734,237.438,214.663
0.376,36.014,1.651,1.651,197.781,237.533,214.637
0.377,36.124,1.639,1.639,197.834,237.627,214.611
0.379,36.234,1.630,1.630,197.889,237.719,214.588
0.380,36.344,1.623,1.623,197.947,237.810,214.567
0.381,36.453,1.618,1.618,198.007,237.900,214.552
0.383,36.560,1.617,1.617,198.066,237.990,214.542
0.384,36.666,1.619,1.619,198.123,238.079,214.541
0.386,36.771,1.625,1.625,198.178,238.167,214.548
0.387,36.875,1.633,1.633,198.228,238.256,214.567
0.388,36.979,1.644,1.644,198.273,238.346,214.597
0.390,37.085,1.657,1.657,198.313,238.435,214.638
0.391,37.193,1.670,1.670,198.348,238.523,214.688
0.393,37.301,1.684,1.684,198.378,238.610,214.745
0.394,37.409,1.699,1.699,198.402,238.695,214.808
0.395,37.517,1.712,1.712,198.422,238.777,214.874
0.397,37.622,1.724,1.724,198.438,238.856,214.943
0.398,37.724,1.734,1.734,198.449,238.931,215.011
0.399,37.822,1.742,1.742,198.456,239.002,215.078
0.401,37.913,1.746,1.746,198.459,239.067,215.141
0.402,37.996,1.745,1.745,198.458,239.127,215.199
0.404,38.070,1.740,1.740,198.454,239.180,215.251
0.405,38.135,1.729,1.729,198.447,239.227,215.294
0.406,38.191,1.715,1.715,198.439,239.269,215.330
0.408,38.239,1.698,1.698,198.433,239.306,215.360
0.409,38.281,1.681,1.681,198.432,239.340,215.385
0.411,38.320,1.667,1.667,198.437,239.373,215.406
0.412,38.358,1.657,1.657,198.452,239.404,215.423
0.413,38.402,1.654,1.654,198.478,239.435,215.438
0.415,38.455,1.661,1.661,198.518,239.468,215.451
0.416,38.523,1.677,1.677,198.574,239.504,215.463
0.417,38.608,1.701,1.701,198.650,239.542,215.476
0.419,38.715,1.733,1.733,198.746,239.586,215.490
0.420,38.845,1.772,1.772,198.865,239.635,215.506
0.422,38.997,1.815,1.815,199.006,239.690,215.525
0.423,39.166,1.863,1.863,199.162,239.751,215.545
0.424,39.347,1.913,1.913,199.329,239.818,215.567
0.426,39.535,1.965,1.965,199.501,239.890,215.591
0.427,39.726,2.016,2.017,199.674,239.968,215.615
0.429,39.915,2.066,2.067,199.841,240.050,215.641
0.430,40.096,2.114,2.115,199.998,240.137,215.667
0.431,40.267,2.157,2.158,200.140,240.230,215.693
0.433,40.424,2.195,2.195,200.261,240.326,215.720
0.434,40.566,2.225,2.225,200.356,240.427,215.746
0.436,40.691,2.248,2.247,200.420,240.532,215.772
0.437,40.807,2.263,2.261,200.450,240.641,215.796
0.438,40.920,2.271,2.269,200.450,240.751,215.819
0.440,41.034,2.276,2.273,200.426,240.862,215.839
0.441,41.151,2.278,2.275,200.384,240.969,215.855
0.442,41.267,2.278,2.276,200.332,241.073,215.867
0.444,41.380,2.278,2.277,200.274,241.169,215.872
0.445,41.485,2.280,2.282,200.217,241.257,215.871
0.447,41.577,2.285,2.289,200.168,241.335,215.862
0.448,41.652,2.292,2.300,200.132,241.399,215.843
0.449,41.711,2.303,2.313,200.117,241.448,215.815
0.451,41.763,2.318,2.328,200.127,241.481,215.776
0.452,41.830,2.336,2.346,200.169,241.494,215.725
0.454,41.929,2.359,2.364,200.245,241.489,215.664
0.455,42.057,2.387,2.384,200.352,241.471,215.596
0.456,42.211,2.419,2.405,200.486,241.444,215.525
0.458,42.385,2.453,2.427,200.644,241.415,215.456
0.459,42.574,2.487,2.452,200.820,241.388,215.394
0.460,42.775,2.520,2.479,201.013,241.368,215.342
0.462,42.983,2.548,2.510,201.217,241.361,215.304
0.463,43.196,2.570,2.544,201.430,241.371,215.286
0.465,43.416,2.584,2.583,201.646,241.405,215.290
0.466,43.644,2.588,2.627,201.864,241.466,215.322
0.467,43.887,2.588,2.677,202.078,241.561,215.386
0.469,44.152,2.590,2.734,202.285,241.693,215.485
0.470,44.444,2.602,2.800,202.485,241.861,215.616
0.472,44.760,2.629,2.875,202.675,242.059,215.773
0.473,45.097,2.678,2.960,202.857,242.282,215.948
0.474,45.448,2.756,3.057,203.030,242.524,216.136
0.476,45.808,2.869,3.166,203.193,242.780,216.330
0.477,46.169,3.011,3.284,203.346,243.044,216.522
0.479,46.524,3.171,3.405,203.488,243.311,216.708
0.480,46.865,3.338,3.522,203.620,243.575,216.879
0.481,47.187,3.501,3.631,203.741,243.832,217.030
0.483,47.481,3.650,3.724,203.850,244.075,217.154
0.484,47.741,3.771,3.796,203.947,244.299,217.244
0.485,47.967,3.856,3.841,204.033,244.501,217.297
0.487,48.161,3.900,3.858,204.107,244.680,217.316
0.488,48.331,3.911,3.854,204.170,244.837,217.305
0.490,48.481,3.897,3.835,204.223,244.973,217.270
0.491,48.617,3.864,3.807,204.267,245.089,217.215
0.492,48.741,3.821,3.777,204.303,245.186,217.146
0.494,48.856,3.775,3.752,204.330,245.264,217.065
0.495,48.963,3.733,3.737,204.350,245.324,216.980
0.497,49.060,3.701,3.738,204.363,245.367,216.893
0.498,49.147,3.680,3.751,204.371,245.394,216.811
0.499,49.222,3.667,3.772,204.373,245.405,216.737
0.501,49.283,3.663,3.800,204.371,245.402,216.677
0.502,49.331,3.667,3.830,204.365,245.387,216.631
0.503,49.371,3.678,3.858,204.357,245.364,216.599
0.505,49.406,3.694,3.882,204.347,245.338,216.579
0.506,49.434,3.716,3.898,204.337,245.313,216.570
0.508,49.456,3.741,3.906,204.329,245.293,216.570
0.509,49.470,3.768,3.907,204.323,245.282,216.577
0.510,49.484,3.793,3.902,204.321,245.286,216.590
0.512,49.512,3.814,3.892,204.324,245.308,216.608
0.513,49.562,3.830,3.877,204.332,245.353,216.629
0.515,49.639,3.839,3.859,204.348,245.425,216.652
0.516,49.748,3.837,3.838,204.373,245.528,216.675
0.517,49.891,3.826,3.815,204.407,245.666,216.696
0.519,50.066,3.808,3.792,204.449,245.834,216.715
0.520,50.265,3.786,3.769,204.498,246.026,216.732
0.521,50.482,3.762,3.748,204.553,246.235,216.745
0.523,50.710,3.739,3.730,204.612,246.455,216.755
0.524,50.942,3.719,3.716,204.674,246.680,216.761
0.526,51.173,3.706,3.707,204.736,246.901,216.762
0.527,51.394,3.700,3.704,204.798,247.114,216.757
0.528,51.600,3.701,3.706,204.858,247.311,216.747
0.530,51.784,3.707,3.712,204.914,247.485,216.730
0.531,51.940,3.717,3.721,204.965,247.631,216.706
0.533,52.063,3.729,3.732,205.009,247.741,216.675
0.534,52.153,3.744,3.745,205.046,247.813,216.635
0.535,52.222,3.758,3.758,205.076,247.852,216.587
0.537,52.286,3.772,3.771,205.099,247.864,216.529
0.538,52.357,3.784,3.782,205.116,247.855,216.460
0.540,52.441,3.794,3.792,205.128,247.831,216.380
0.541,52.539,3.801,3.800,205.135,247.798,216.288
0.542,52.650,3.805,3.804,205.138,247.763,216.183
0.544,52.774,3.805,3.804,205.137,247.730,216.064
0.545,52.909,3.800,3.800,205.133,247.707,215.931
0.546,53.058,3.791,3.791,205.126,247.699,215.782
0.548,53.224,3.778,3.779,205.117,247.712,215.617
0.549,53.410,3.766,3.766,205.107,247.752,215.435
0.551,53.618,3.757,3.758,205.096,247.818,215.239
0.552,53.843,3.755,3.755,205.085,247.907,215.033
0.553,54.081,3.762,3.763,205.074,248.014,214.821
0.555,54.325,3.783,3.783,205.064,248.134,214.608
0.556,54.571,3.820,3.820,205.056,248.262,214.398
0.558,54.813,3.872,3.872,205.050,248.395,214.197
0.559,55.043,3.934,3.934,205.046,248.527,214.007
0.560,55.258,4.001,4.001,205.046,248.654,213.835
0.562,55.449,4.068,4.067,205.049,248.772,213.684
0.563,55.611,4.128,4.128,205.057,248.875,213.559
0.564,55.739,4.178,4.178,205.070,248.960,213.464
