"T","Distance","Radius","FreeRadius","X","Y","Z"
0.000,0.000,2.617,2.617,187.441,222.285,215.602
0.005,0.013,2.621,2.621,187.449,222.289,215.592
0.009,0.026,2.625,2.625,187.456,222.293,215.583
0.014,0.038,2.629,2.629,187.463,222.297,215.573
0.019,0.049,2.633,2.633,187.470,222.300,215.565
0.023,0.060,2.636,2.636,187.476,222.303,215.557
0.028,0.069,2.638,2.638,187.480,222.306,215.550
0.033,0.076,2.640,2.640,187.484,222.308,215.544
0.038,0.081,2.642,2.642,187.487,222.310,215.540
0.042,0.084,2.642,2.642,187.488,222.310,215.537
0.047,0.086,2.641,2.641,187.488,222.310,215.536
0.052,0.088,2.639,2.639,187.485,222.309,215.536
0.056,0.094,2.635,2.635,187.481,222.307,215.539
0.061,0.102,2.631,2.631,187.475,222.303,215.544
0.066,0.115,2.624,2.624,187.466,222.299,215.552
0.070,0.131,2.617,2.617,187.455,222.293,215.562
0.075,0.151,2.607,2.607,187.442,222.285,215.575
0.080,0.175,2.596,2.596,187.426,222.276,215.591
0.085,0.202,2.585,2.585,187.410,222.263,215.608
0.089,0.232,2.573,2.573,187.394,222.248,215.628
0.094,0.264,2.561,2.561,187.379,222.227,215.648
0.099,0.299,2.550,2.550,187.367,222.202,215.670
0.103,0.338,2.539,2.539,187.358,222.171,215.691
0.108,0.382,2.531,2.531,187.353,222.134,215.713
0.113,0.431,2.525,2.525,187.354,222.089,215.734
0.117,0.488,2.521,2.521,187.362,222.036,215.754
0.122,0.554,2.522,2.522,187.377,221.975,215.772
0.127,0.630,2.528,2.528,187.401,221.904,215.789
0.131,0.719,2.538,2.538,187.434,221.823,215.803
0.136,0.822,2.553,2.553,187.478,221.731,215.815
0.141,0.940,2.582,2.582,187.534,221.627,215.823
0.146,1.075,2.632,2.632,187.603,221.511,215.828
0.150,1.227,2.673,2.673,187.684,221.383,215.829
0.155,1.392,2.666,2.666,187.775,221.245,215.826
0.160,1.568,2.626,2.626,187.874,221.100,215.822
0.164,1.753,2.596,2.596,187.980,220.948,215.814
0.169,1.944,2.587,2.587,188.090,220.792,215.806
0.174,2.139,2.588,2.588,188.203,220.634,215.795
0.178,2.335,2.593,2.593,188.316,220.475,215.784
0.183,2.528,2.604,2.604,188.428,220.317,215.773
0.188,2.717,2.624,2.624,188.537,220.163,215.761
0.192,2.899,2.652,2.652,188.640,220.014,215.750
0.197,3.071,2.688,2.688,188.737,219.872,215.740
0.202,3.231,2.729,2.729,188.824,219.738,215.731
0.207,3.375,2.774,2.774,188.900,219.615,215.724
0.211,3.502,2.811,2.811,188.963,219.505,215.719
0.216,3.610,2.830,2.830,189.011,219.409,215.717
0.221,3.697,2.836,2.836,189.044,219.328,215.718
0.225,3.768,2.837,2.837,189.063,219.260,215.721
0.230,3.826,2.842,2.842,189.072,219.203,215.725
0.235,3.874,2.853,2.853,189.071,219.156,215.731
0.239,3.915,2.869,2.869,189.063,219.116,215.736
0.244,3.952,2.881,2.881,189.051,219.081,215.741
0.249,3.986,2.884,2.884,189.035,219.050,215.744
0.254,4.019,2.884,2.884,189.019,219.021,215.746
0.258,4.052,2.884,2.884,189.005,218.992,215.745
0.263,4.085,2.886,2.886,188.994,218.962,215.741
0.268,4.121,2.894,2.894,188.988,218.927,215.734
0.272,4.163,2.915,2.915,188.991,218.886,215.722
0.277,4.216,2.952,2.952,189.003,218.839,215.704
0.282,4.282,2.992,2.992,189.027,218.781,215.681
0.286,4.366,3.020,3.020,189.066,218.713,215.651
0.291,4.470,3.036,3.036,189.119,218.632,215.615
0.296,4.591,3.048,3.048,189.186,218.540,215.572
0.300,4.728,3.061,3.061,189.264,218.439,215.523
0.305,4.877,3.076,3.076,189.350,218.330,215.469
0.310,5.036,3.096,3.096,189.444,218.216,215.410
0.315,5.202,3.122,3.122,189.542,218.097,215.346
0.319,5.373,3.156,3.156,189.641,217.976,215.279
0.324,5.546,3.200,3.200,189.741,217.854,215.209
0.329,5.717,3.253,3.253,189.839,217.733,215.136
0.333,5.885,3.311,3.311,189.931,217.614,215.061
0.338,6.048,3.373,3.373,190.017,217.500,214.985
0.343,6.202,3.449,3.449,190.094,217.391,214.907
0.347,6.345,3.542,3.542,190.160,217.291,214.829
0.352,6.476,3.620,3.620,190.212,217.199,214.751
0.357,6.593,3.641,3.641,190.248,217.119,214.674
0.362,6.698,3.607,3.607,190.267,217.050,214.597
0.366,6.793,3.548,3.548,190.268,216.992,214.521
0.371,6.886,3.486,3.486,190.253,216.942,214.445
0.376,6.980,3.432,3.432,190.223,216.898,214.367
0.380,7.081,3.393,3.393,190.178,216.857,214.288
0.385,7.190,3.363,3.363,190.119,216.816,214.205
0.390,7.310,3.338,3.338,190.047,216.774,214.118
0.394,7.442,3.325,3.325,189.964,216.727,214.027
0.399,7.587,3.323,3.323,189.870,216.673,213.931
0.404,7.746,3.313,3.313,189.766,216.610,213.829
0.408,7.920,3.280,3.280,189.654,216.536,213.719
0.413,8.110,3.240,3.240,189.533,216.447,213.601
0.418,8.319,3.215,3.215,189.405,216.341,213.475
0.423,8.547,3.210,3.210,189.270,216.216,213.339
0.427,8.797,3.221,3.221,189.131,216.069,213.193
0.432,9.070,3.240,3.240,188.987,215.899,213.036
0.437,9.364,3.256,3.256,188.840,215.705,212.869
0.441,9.677,3.275,3.275,188.692,215.493,212.695
0.446,10.003,3.318,3.318,188.543,215.264,212.515
0.451,10.341,3.399,3.399,188.394,215.023,212.333
0.455,10.684,3.511,3.511,188.248,214.771,212.150
0.460,11.030,3.649,3.649,188.106,214.513,211.968
0.465,11.375,3.809,3.809,187.968,214.252,211.791
0.469,11.714,3.988,3.988,187.836,213.991,211.620
0.474,12.044,4.182,4.182,187.712,213.732,211.457
0.479,12.360,4.385,4.385,187.597,213.480,211.305
0.484,12.658,4.589,4.589,187.491,213.237,211.167
0.488,12.935,4.788,4.788,187.398,213.007,211.044
0.493,13.187,4.982,4.982,187.316,212.793,210.939
0.498,13.411,5.175,5.175,187.249,212.598,210.853
0.502,13.602,5.346,5.346,187.198,212.425,210.791
0.507,13.761,5.450,5.450,187.161,212.276,210.750
0.512,13.893,5.484,5.484,187.138,212.147,210.729
0.516,14.001,5.498,5.498,187.128,212.040,210.726
0.521,14.091,5.522,5.522,187.128,211.951,210.737
0.526,14.167,5.549,5.549,187.138,211.879,210.761
0.531,14.235,5.569,5.569,187.156,211.824,210.795
0.535,14.298,5.586,5.586,187.181,211.783,210.837
0.540,14.360,5.602,5.602,187.210,211.754,210.884
0.545,14.422,5.612,5.612,187.243,211.738,210.934
0.549,14.483,5.612,5.612,187.278,211.732,210.984
0.554,14.543,5.606,5.606,187.314,211.734,211.032
0.559,14.599,5.603,5.603,187.349,211.744,211.075
0.563,14.650,5.601,5.601,187.381,211.760,211.111
0.568,14.694,5.598,5.598,187.410,211.780,211.137
0.573,14.730,5.590,5.590,187.434,211.802,211.152
0.577,14.760,5.572,5.572,187.451,211.827,211.154
0.582,14.789,5.548,5.548,187.462,211.852,211.145
0.587,14.820,5.528,5.528,187.467,211.876,211.126
0.592,14.854,5.516,5.516,187.465,211.899,211.101
0.596,14.892,5.505,5.505,187.458,211.919,211.070
0.601,14.931,5.490,5.490,187.444,211.935,211.037
0.606,14.973,5.477,5.477,187.425,211.946,211.002
0.610,15.015,5.471,5.471,187.400,211.950,210.968
0.615,15.060,5.475,5.475,187.368,211.947,210.937
0.620,15.106,5.487,5.487,187.331,211.936,210.910
0.624,15.158,5.510,5.510,187.288,211.916,210.891
0.629,15.217,5.549,5.549,187.239,211.885,210.880
0.634,15.286,5.600,5.600,187.185,211.842,210.881
0.638,15.369,5.656,5.656,187.125,211.786,210.894
0.643,15.469,5.700,5.700,187.059,211.716,210.922
0.648,15.588,5.708,5.708,186.988,211.632,210.966
0.653,15.725,5.675,5.675,186.913,211.535,211.026
0.657,15.879,5.630,5.630,186.834,211.425,211.101
0.662,16.048,5.599,5.599,186.753,211.305,211.190
0.667,16.232,5.578,5.578,186.671,211.177,211.291
0.671,16.427,5.561,5.561,186.590,211.041,211.405
0.676,16.633,5.550,5.550,186.509,210.899,211.530
0.681,16.847,5.550,5.550,186.431,210.752,211.666
0.685,17.068,5.560,5.560,186.356,210.603,211.810
0.690,17.294,5.580,5.580,186.286,210.452,211.964
0.695,17.523,5.611,5.611,186.222,210.302,212.124
0.700,17.755,5.656,5.656,186.165,210.153,212.292
0.704,17.986,5.712,5.712,186.115,210.007,212.465
0.709,18.217,5.772,5.772,186.074,209.866,212.643
0.714,18.446,5.825,5.825,186.044,209.731,212.825
0.718,18.672,5.852,5.852,186.025,209.603,213.010
0.723,18.894,5.850,5.850,186.016,209.482,213.197
0.728,19.113,5.847,5.847,186.016,209.368,213.384
0.732,19.329,5.867,5.867,186.024,209.260,213.570
0.737,19.539,5.903,5.903,186.039,209.158,213.754
0.742,19.745,5.947,5.947,186.059,209.060,213.933
0.746,19.944,5.998,5.998,186.083,208.965,214.107
0.751,20.137,6.057,6.057,186.110,208.875,214.275
0.756,20.321,6.119,6.119,186.139,208.787,214.435
0.761,20.497,6.172,6.172,186.168,208.701,214.585
0.765,20.662,6.215,6.215,186.196,208.616,214.724
0.770,20.816,6.252,6.252,186.223,208.532,214.850
0.775,20.958,6.290,6.290,186.245,208.449,214.963
0.779,21.089,6.348,6.348,186.264,208.365,215.061
0.784,21.208,6.416,6.416,186.276,208.279,215.143
0.789,21.316,6.442,6.442,186.281,208.192,215.206
0.793,21.416,6.403,6.403,186.279,208.103,215.253
0.798,21.512,6.344,6.344,186.271,208.012,215.283
0.803,21.606,6.308,6.308,186.256,207.921,215.299
0.808,21.701,6.294,6.294,186.235,207.829,215.303
0.812,21.797,6.290,6.290,186.208,207.736,215.296
0.817,21.896,6.293,6.293,186.177,207.644,215.279
0.822,21.997,6.307,6.307,186.141,207.552,215.255
0.826,22.101,6.329,6.329,186.102,207.461,215.225
0.831,22.207,6.357,6.357,186.058,207.371,215.190
0.836,22.313,6.389,6.389,186.012,207.283,215.152
0.840,22.419,6.424,6.424,185.963,207.197,215.113
0.845,22.525,6.461,6.461,185.912,207.114,215.074
0.850,22.628,6.498,6.498,185.859,207.033,215.037
0.854,22.728,6.531,6.531,185.805,206.956,215.004
0.859,22.824,6.545,6.545,185.750,206.882,214.976
0.864,22.917,6.533,6.533,185.695,206.812,214.953
0.869,23.006,6.510,6.510,185.639,206.744,214.936
0.873,23.093,6.493,6.493,185.584,206.678,214.925
0.878,23.178,6.480,6.480,185.528,206.613,214.919
0.883,23.263,6.469,6.469,185.473,206.548,214.918
0.887,23.348,6.458,6.458,185.419,206.483,214.922
0.892,23.435,6.451,6.451,185.365,206.417,214.931
0.897,23.522,6.448,6.448,185.312,206.348,214.943
0.901,23.613,6.447,6.447,185.260,206.276,214.960
0.906,23.706,6.451,6.451,185.209,206.200,214.981
0.911,23.803,6.467,6.467,185.160,206.120,215.005
0.915,23.905,6.489,6.489,185.112,206.034,215.032
0.920,24.012,6.500,6.500,185.066,205.943,215.063
0.925,24.126,6.488,6.488,185.022,205.844,215.097
0.930,24.246,6.461,6.461,184.980,205.737,215.133
0.934,24.374,6.431,6.431,184.941,205.621,215.172
0.939,24.509,6.401,6.401,184.904,205.499,215.212
0.944,24.650,6.376,6.376,184.868,205.368,215.256
0.948,24.798,6.356,6.356,184.835,205.231,215.301
0.953,24.952,6.340,6.340,184.803,205.088,215.347
0.958,25.111,6.329,6.329,184.773,204.939,215.396
0.962,25.276,6.322,6.322,184.744,204.786,215.446
0.967,25.444,6.320,6.320,184.716,204.627,215.497
0.972,25.617,6.323,6.323,184.690,204.465,215.549
0.977,25.792,6.331,6.331,184.664,204.300,215.602
0.981,25.971,6.344,6.344,184.639,204.132,215.656
0.986,26.152,6.362,6.362,184.615,203.961,215.711
0.991,26.334,6.385,6.385,184.591,203.789,215.766
0.995,26.518,6.413,6.413,184.567,203.615,215.822
1.000,26.702,6.443,6.443,184.544,203.442,215.878
