"T","Distance","Radius","FreeRadius","X","Y","Z"
0.000,0.000,2.617,2.617,187.441,222.285,215.602
0.001,0.067,2.636,2.636,187.475,222.236,215.635
0.003,0.130,2.655,2.655,187.506,222.191,215.665
0.004,0.184,2.670,2.670,187.533,222.152,215.690
0.006,0.226,2.680,2.680,187.555,222.121,215.709
0.007,0.250,2.685,2.685,187.568,222.104,215.719
0.008,0.255,2.682,2.682,187.571,222.101,215.718
0.010,0.278,2.670,2.670,187.563,222.117,215.703
0.011,0.331,2.648,2.648,187.540,222.154,215.673
0.012,0.418,2.617,2.617,187.501,222.215,215.624
0.014,0.544,2.580,2.580,187.445,222.304,215.555
0.015,0.710,2.541,2.541,187.370,222.421,215.465
0.017,0.909,2.503,2.503,187.281,222.561,215.356
0.018,1.132,2.468,2.468,187.184,222.718,215.231
0.019,1.371,2.440,2.440,187.084,222.886,215.093
0.021,1.618,2.423,2.423,186.987,223.058,214.945
0.022,1.864,2.416,2.416,186.898,223.228,214.790
0.024,2.104,2.420,2.420,186.822,223.390,214.631
0.025,2.328,2.432,2.432,186.764,223.538,214.471
0.026,2.534,2.452,2.452,186.731,223.665,214.314
0.028,2.716,2.478,2.478,186.727,223.764,214.161
0.029,2.880,2.509,2.509,186.755,223.836,214.015
0.031,3.036,2.544,2.544,186.808,223.886,213.878
0.032,3.190,2.581,2.581,186.881,223.924,213.748
0.033,3.343,2.617,2.617,186.967,223.957,213.626
0.035,3.495,2.652,2.652,187.061,223.995,213.513
0.036,3.645,2.683,2.683,187.156,224.046,213.408
0.037,3.795,2.708,2.708,187.246,224.118,213.313
0.039,3.949,2.724,2.724,187.325,224.219,213.227
0.040,4.120,2.731,2.731,187.386,224.359,213.151
0.042,4.322,2.725,2.725,187.424,224.546,213.085
0.043,4.562,2.711,2.711,187.438,224.779,213.027
0.044,4.834,2.693,2.693,187.434,225.046,212.976
0.046,5.128,2.677,2.677,187.421,225.336,212.929
0.047,5.430,2.666,2.666,187.405,225.634,212.882
0.049,5.728,2.667,2.667,187.395,225.928,212.833
0.050,6.010,2.683,2.683,187.397,226.205,212.779
0.051,6.266,2.719,2.719,187.419,226.452,212.717
0.053,6.489,2.775,2.775,187.468,226.657,212.644
0.054,6.681,2.848,2.848,187.553,226.806,212.558
0.055,6.863,2.935,2.935,187.679,226.888,212.456
0.057,7.067,3.030,3.030,187.846,226.902,212.338
0.058,7.307,3.132,3.132,188.042,226.862,212.207
0.060,7.577,3.236,3.236,188.258,226.782,212.066
0.061,7.866,3.339,3.339,188.482,226.676,211.918
0.062,8.159,3.437,3.437,188.704,226.558,211.767
0.064,8.442,3.531,3.531,188.913,226.442,211.616
0.065,8.699,3.618,3.618,189.098,226.341,211.468
0.067,8.918,3.699,3.699,189.248,226.270,211.325
0.068,9.090,3.772,3.772,189.353,226.242,211.193
0.069,9.223,3.837,3.837,189.402,226.271,211.072
0.071,9.361,3.892,3.892,189.399,226.357,210.964
0.072,9.531,3.937,3.937,189.353,226.491,210.869
0.074,9.739,3.973,3.973,189.276,226.663,210.783
0.075,9.975,4.000,4.000,189.180,226.865,210.708
0.076,10.230,4.020,4.020,189.076,227.088,210.641
0.078,10.492,4.033,4.033,188.975,227.323,210.580
0.079,10.749,4.041,4.041,188.889,227.559,210.526
0.080,10.992,4.043,4.043,188.829,227.789,210.477
0.082,11.212,4.042,4.042,188.806,228.003,210.431
0.083,11.408,4.039,4.039,188.831,228.192,210.388
0.085,11.591,4.035,4.035,188.901,228.356,210.347
0.086,11.772,4.032,4.032,189.009,228.497,210.307
0.087,11.959,4.031,4.031,189.146,228.617,210.270
0.089,12.151,4.035,4.035,189.305,228.719,210.233
0.090,12.348,4.045,4.045,189.478,228.805,210.198
0.092,12.543,4.062,4.062,189.656,228.878,210.163
0.093,12.733,4.087,4.087,189.832,228.941,210.129
0.094,12.910,4.118,4.118,189.997,228.995,210.095
0.096,13.068,4.153,4.153,190.144,229.043,210.062
0.097,13.202,4.190,4.190,190.266,229.088,210.028
0.098,13.313,4.228,4.228,190.362,229.131,209.994
0.100,13.403,4.264,4.264,190.435,229.172,209.961
0.101,13.478,4.298,4.298,190.489,229.212,209.927
0.103,13.541,4.328,4.328,190.525,229.251,209.893
0.104,13.598,4.353,4.353,190.547,229.291,209.860
0.105,13.651,4.373,4.373,190.556,229.332,209.827
0.107,13.705,4.390,4.390,190.556,229.375,209.794
0.108,13.761,4.402,4.402,190.550,229.420,209.761
0.110,13.819,4.410,4.410,190.539,229.468,209.729
0.111,13.880,4.414,4.414,190.527,229.518,209.698
0.112,13.940,4.414,4.414,190.515,229.569,209.669
0.114,13.995,4.410,4.410,190.507,229.616,209.643
0.115,14.040,4.403,4.403,190.503,229.656,209.621
0.117,14.072,4.394,4.394,190.506,229.684,209.606
0.118,14.092,4.383,4.383,190.519,229.697,209.598
0.119,14.116,4.371,4.371,190.542,229.691,209.598
0.121,14.164,4.357,4.357,190.579,229.662,209.608
0.122,14.242,4.344,4.344,190.631,229.607,209.630
0.123,14.358,4.330,4.330,190.700,229.522,209.665
0.125,14.511,4.315,4.315,190.788,229.406,209.712
0.126,14.695,4.298,4.298,190.890,229.264,209.771
0.128,14.901,4.279,4.279,191.002,229.105,209.838
0.129,15.119,4.257,4.257,191.119,228.937,209.911
0.130,15.340,4.231,4.231,191.238,228.766,209.987
0.132,15.556,4.202,4.202,191.353,228.600,210.064
0.133,15.756,4.168,4.168,191.460,228.448,210.139
0.135,15.933,4.134,4.134,191.554,228.317,210.209
0.136,16.076,4.102,4.102,191.633,228.215,210.272
0.137,16.179,4.073,4.073,191.689,228.148,210.325
0.139,16.239,4.052,4.052,191.723,228.120,210.367
0.140,16.274,4.041,4.041,191.738,228.121,210.398
0.141,16.304,4.042,4.042,191.739,228.143,210.419
0.143,16.339,4.056,4.056,191.729,228.174,210.431
0.144,16.373,4.078,4.078,191.714,228.205,210.435
0.146,16.400,4.103,4.103,191.698,228.226,210.432
0.147,16.416,4.123,4.123,191.686,228.226,210.422
0.148,16.449,4.132,4.132,191.681,228.197,210.407
0.150,16.522,4.124,4.124,191.690,228.128,210.387
0.151,16.646,4.093,4.093,191.715,228.009,210.363
0.153,16.824,4.032,4.032,191.758,227.838,210.336
0.154,17.045,3.946,3.946,191.816,227.627,210.307
0.155,17.297,3.842,3.842,191.885,227.386,210.278
0.157,17.569,3.729,3.729,191.960,227.127,210.248
0.158,17.847,3.614,3.614,192.038,226.861,210.220
0.160,18.120,3.504,3.504,192.114,226.600,210.195
0.161,18.375,3.409,3.409,192.184,226.355,210.173
0.162,18.602,3.334,3.334,192.245,226.138,210.156
0.164,18.787,3.284,3.284,192.292,225.960,210.144
0.165,18.918,3.252,3.252,192.322,225.831,210.139
0.166,18.997,3.235,3.235,192.335,225.754,210.141
0.168,19.034,3.228,3.228,192.336,225.717,210.147
0.169,19.045,3.226,3.226,192.332,225.711,210.155
0.171,19.062,3.225,3.225,192.329,225.725,210.164
0.172,19.088,3.220,3.220,192.331,225.749,210.172
0.173,19.115,3.207,3.207,192.345,225.772,210.177
0.175,19.149,3.188,3.188,192.377,225.784,210.177
0.176,19.206,3.164,3.164,192.432,225.774,210.170
0.178,19.301,3.134,3.134,192.517,225.732,210.155
0.179,19.448,3.100,3.100,192.636,225.649,210.128
0.180,19.648,3.063,3.063,192.787,225.525,210.092
0.182,19.890,3.024,3.024,192.966,225.367,210.047
0.183,20.165,2.984,2.984,193.164,225.184,209.995
0.184,20.460,2.942,2.942,193.374,224.985,209.938
0.186,20.767,2.901,2.901,193.591,224.777,209.878
0.187,21.073,2.861,2.861,193.808,224.569,209.817
0.189,21.369,2.822,2.822,194.016,224.368,209.756
0.190,21.643,2.785,2.785,194.211,224.185,209.698
0.191,21.885,2.751,2.751,194.385,224.026,209.643
0.193,22.085,2.720,2.720,194.532,223.899,209.595
0.194,22.243,2.694,2.694,194.651,223.804,209.553
0.196,22.364,2.671,2.671,194.746,223.737,209.518
0.197,22.452,2.652,2.652,194.819,223.695,209.491
0.198,22.514,2.637,2.637,194.873,223.674,209.473
0.200,22.553,2.625,2.625,194.911,223.668,209.462
0.201,22.579,2.617,2.617,194.936,223.676,209.461
0.202,22.602,2.612,2.612,194.950,223.692,209.469
0.204,22.630,2.610,2.610,194.957,223.712,209.486
0.205,22.665,2.609,2.609,194.959,223.734,209.514
0.207,22.707,2.609,2.609,194.958,223.752,209.552
0.208,22.752,2.608,2.608,194.957,223.766,209.595
0.209,22.794,2.604,2.604,194.957,223.775,209.636
0.211,22.826,2.596,2.596,194.959,223.777,209.667
0.212,22.843,2.584,2.584,194.964,223.772,209.683
0.214,22.861,2.565,2.565,194.974,223.760,209.676
0.215,22.906,2.541,2.541,194.989,223.738,209.639
0.216,22.990,2.515,2.515,195.012,223.706,209.565
0.218,23.118,2.489,2.489,195.043,223.664,209.448
0.219,23.300,2.465,2.465,195.084,223.611,209.279
0.221,23.537,2.444,2.444,195.134,223.545,209.057
0.222,23.823,2.428,2.428,195.194,223.468,208.788
0.223,24.144,2.420,2.420,195.260,223.379,208.487
0.225,24.488,2.417,2.417,195.331,223.279,208.165
0.226,24.843,2.415,2.415,195.403,223.169,207.836
0.227,25.196,2.411,2.411,195.476,223.050,207.511
0.229,25.537,2.402,2.402,195.547,222.921,207.204
0.230,25.853,2.382,2.382,195.613,222.783,206.927
0.232,26.135,2.350,2.350,195.672,222.638,206.693
0.233,26.376,2.300,2.300,195.722,222.484,206.514
0.234,26.578,2.234,2.234,195.762,222.324,206.399
0.236,26.757,2.155,2.155,195.793,222.157,206.340
0.237,26.931,2.068,2.068,195.814,221.985,206.329
0.239,27.109,1.976,1.976,195.828,221.809,206.357
0.240,27.298,1.884,1.884,195.834,221.630,206.415
0.241,27.496,1.795,1.795,195.835,221.448,206.493
0.243,27.700,1.715,1.715,195.830,221.265,206.584
0.244,27.906,1.645,1.645,195.822,221.082,206.677
0.245,28.109,1.585,1.585,195.810,220.899,206.764
0.247,28.304,1.536,1.536,195.796,220.718,206.836
0.248,28.490,1.497,1.497,195.780,220.540,206.887
0.250,28.667,1.469,1.469,195.763,220.367,206.921
0.251,28.834,1.450,1.450,195.745,220.202,206.939
0.252,28.990,1.440,1.440,195.726,220.047,206.945
0.254,29.133,1.440,1.440,195.706,219.906,206.943
0.255,29.260,1.446,1.446,195.686,219.780,206.935
0.257,29.370,1.459,1.459,195.665,219.672,206.926
0.258,29.460,1.474,1.474,195.644,219.586,206.918
0.259,29.527,1.492,1.492,195.623,219.522,206.914
0.261,29.571,1.509,1.509,195.602,219.484,206.919
0.262,29.598,1.523,1.523,195.581,219.471,206.931
0.264,29.624,1.534,1.534,195.564,219.475,206.949
0.265,29.652,1.540,1.540,195.550,219.490,206.968
0.266,29.678,1.543,1.543,195.542,219.508,206.986
0.268,29.696,1.544,1.544,195.541,219.521,206.997
0.269,29.704,1.544,1.544,195.549,219.524,206.999
0.270,29.731,1.545,1.545,195.567,219.507,206.989
0.272,29.790,1.547,1.547,195.598,219.464,206.962
0.273,29.890,1.551,1.551,195.642,219.388,206.914
0.275,30.039,1.560,1.560,195.701,219.272,206.844
0.276,30.235,1.572,1.572,195.775,219.115,206.750
0.277,30.470,1.590,1.590,195.860,218.927,206.638
0.279,30.732,1.613,1.613,195.954,218.717,206.514
0.280,31.009,1.643,1.643,196.052,218.493,206.383
0.282,31.293,1.679,1.679,196.151,218.264,206.249
0.283,31.570,1.723,1.723,196.249,218.039,206.119
0.284,31.832,1.775,1.775,196.342,217.827,205.998
0.286,32.066,1.831,1.831,196.427,217.637,205.890
0.287,32.262,1.890,1.890,196.500,217.479,205.801
0.288,32.409,1.948,1.948,196.559,217.359,205.737
0.290,32.509,2.002,2.002,196.602,217.280,205.696
0.291,32.566,2.049,2.049,196.632,217.235,205.676
0.293,32.591,2.087,2.087,196.649,217.218,205.671
0.294,32.602,2.112,2.112,196.656,217.225,205.677
0.295,32.630,2.125,2.125,196.654,217.249,205.691
0.297,32.670,2.129,2.129,196.644,217.284,205.708
0.298,32.717,2.125,2.125,196.629,217.325,205.724
0.300,32.764,2.115,2.115,196.609,217.367,205.734
0.301,32.806,2.102,2.102,196.586,217.402,205.734
0.302,32.844,2.087,2.087,196.561,217.427,205.721
0.304,32.883,2.072,2.072,196.537,217.439,205.693
0.305,32.932,2.059,2.059,196.512,217.438,205.650
0.307,32.996,2.048,2.048,196.490,217.425,205.591
0.308,33.076,2.039,2.039,196.469,217.400,205.518
0.309,33.173,2.033,2.033,196.452,217.363,205.430
0.311,33.287,2.029,2.029,196.438,217.315,205.327
0.312,33.419,2.029,2.029,196.430,217.256,205.210
0.313,33.569,2.033,2.033,196.427,217.186,205.078
0.315,33.737,2.041,2.041,196.430,217.105,204.931
0.316,33.922,2.052,2.052,196.441,217.014,204.770
0.318,34.122,2.066,2.066,196.458,216.915,204.596
0.319,34.334,2.082,2.082,196.479,216.808,204.415
0.320,34.553,2.101,2.101,196.504,216.696,204.228
0.322,34.776,2.122,2.122,196.530,216.581,204.039
0.323,34.999,2.144,2.144,196.556,216.464,203.850
0.325,35.218,2.167,2.167,196.581,216.348,203.667
0.326,35.429,2.192,2.192,196.603,216.234,203.491
0.327,35.629,2.218,2.218,196.621,216.123,203.325
0.329,35.813,2.246,2.246,196.632,216.018,203.174
0.330,35.980,2.277,2.277,196.637,215.920,203.040
0.331,36.130,2.311,2.311,196.632,215.829,202.920
0.333,36.269,2.348,2.348,196.616,215.742,202.814
0.334,36.399,2.390,2.390,196.588,215.658,202.718
0.336,36.526,2.435,2.435,196.546,215.576,202.631
0.337,36.654,2.482,2.482,196.488,215.495,202.550
0.338,36.790,2.532,2.532,196.413,215.413,202.472
0.340,36.937,2.583,2.583,196.319,215.328,202.397
0.341,37.101,2.635,2.635,196.205,215.240,202.320
0.343,37.285,2.686,2.686,196.068,215.146,202.240
0.344,37.491,2.737,2.737,195.909,215.046,202.156
0.345,37.715,2.786,2.786,195.731,214.940,202.070
0.347,37.953,2.832,2.832,195.541,214.828,201.983
0.348,38.199,2.873,2.873,195.342,214.709,201.897
0.350,38.449,2.909,2.909,195.141,214.585,201.816
0.351,38.698,2.937,2.937,194.943,214.454,201.740
0.352,38.942,2.957,2.957,194.752,214.318,201.673
0.354,39.176,2.968,2.968,194.574,214.176,201.617
0.355,39.398,2.968,2.968,194.414,214.029,201.573
0.356,39.606,2.962,2.962,194.277,213.876,201.545
0.358,39.799,2.952,2.952,194.166,213.719,201.533
0.359,39.981,2.941,2.941,194.078,213.559,201.534
0.361,40.154,2.935,2.935,194.011,213.400,201.547
0.362,40.319,2.936,2.936,193.962,213.244,201.569
0.363,40.476,2.947,2.947,193.927,213.094,201.598
0.365,40.624,2.971,2.971,193.903,212.951,201.631
0.366,40.761,3.007,3.007,193.888,212.820,201.666
0.368,40.884,3.051,3.051,193.879,212.702,201.700
0.369,40.990,3.098,3.098,193.872,212.600,201.731
0.370,41.078,3.144,3.144,193.864,212.517,201.757
0.372,41.146,3.186,3.186,193.854,212.453,201.777
0.373,41.198,3.218,3.218,193.841,212.405,201.792
0.374,41.240,3.238,3.238,193.825,212.368,201.804
0.376,41.276,3.245,3.245,193.806,212.340,201.815
0.377,41.311,3.243,3.243,193.782,212.316,201.827
0.379,41.349,3.234,3.234,193.755,212.294,201.841
0.380,41.394,3.221,3.221,193.724,212.269,201.860
0.381,41.447,3.209,3.209,193.688,212.238,201.886
0.383,41.514,3.200,3.200,193.647,212.197,201.919
0.384,41.597,3.197,3.197,193.601,212.143,201.962
0.386,41.696,3.202,3.202,193.551,212.076,202.013
0.387,41.803,3.213,3.213,193.498,211.999,202.067
0.388,41.914,3.226,3.226,193.443,211.916,202.117
0.390,42.023,3.239,3.239,193.388,211.833,202.158
0.391,42.123,3.248,3.248,193.334,211.752,202.184
0.393,42.213,3.251,3.251,193.282,211.678,202.189
0.394,42.295,3.246,3.246,193.236,211.615,202.167
0.395,42.378,3.229,3.229,193.194,211.567,202.112
0.397,42.482,3.204,3.204,193.160,211.538,202.019
0.398,42.621,3.173,3.173,193.134,211.532,201.881
0.399,42.802,3.140,3.140,193.116,211.549,201.703
0.401,43.016,3.108,3.108,193.106,211.584,201.492
0.402,43.255,3.080,3.080,193.101,211.635,201.258
0.404,43.510,3.060,3.060,193.101,211.695,201.010
0.405,43.771,3.050,3.050,193.104,211.763,200.758
0.406,44.029,3.050,3.050,193.109,211.833,200.510
0.408,44.273,3.058,3.058,193.114,211.903,200.276
0.409,44.494,3.073,3.073,193.118,211.967,200.065
0.411,44.681,3.091,3.091,193.121,212.022,199.886
0.412,44.826,3.112,3.112,193.120,212.064,199.748
0.413,44.928,3.132,3.132,193.115,212.094,199.650
0.415,44.994,3.150,3.150,193.108,212.112,199.587
0.416,45.031,3.165,3.165,193.098,212.120,199.552
0.417,45.047,3.177,3.177,193.087,212.121,199.542
0.419,45.063,3.186,3.186,193.074,212.116,199.549
0.420,45.088,3.192,3.192,193.059,212.106,199.568
0.422,45.120,3.195,3.195,193.045,212.094,199.594
0.423,45.153,3.196,3.196,193.030,212.081,199.621
0.424,45.182,3.194,3.194,193.016,212.069,199.642
0.426,45.202,3.191,3.191,193.003,212.060,199.655
0.427,45.217,3.185,3.185,192.990,212.053,199.656
0.429,45.234,3.179,3.179,192.976,212.050,199.646
0.430,45.259,3.172,3.172,192.961,212.050,199.625
0.431,45.295,3.165,3.165,192.944,212.054,199.594
0.433,45.342,3.159,3.159,192.924,212.060,199.552
0.434,45.400,3.154,3.154,192.900,212.070,199.501
0.436,45.469,3.151,3.151,192.870,212.083,199.439
0.437,45.551,3.149,3.149,192.835,212.100,199.368
0.438,45.644,3.150,3.150,192.793,212.121,199.287
0.440,45.749,3.153,3.153,192.744,212.145,199.198
0.441,45.863,3.158,3.158,192.689,212.171,199.101
0.442,45.983,3.166,3.166,192.630,212.199,199.000
0.444,46.107,3.176,3.175,192.569,212.228,198.897
0.445,46.230,3.188,3.188,192.507,212.256,198.794
0.447,46.349,3.202,3.202,192.447,212.283,198.695
0.448,46.462,3.218,3.218,192.389,212.308,198.601
0.449,46.565,3.234,3.234,192.337,212.328,198.515
0.451,46.655,3.249,3.250,192.291,212.344,198.439
0.452,46.728,3.263,3.264,192.255,212.355,198.376
0.454,46.784,3.275,3.275,192.227,212.359,198.327
0.455,46.824,3.283,3.283,192.210,212.358,198.292
0.456,46.849,3.288,3.288,192.200,212.354,198.269
0.458,46.864,3.290,3.290,192.197,212.347,198.256
0.459,46.873,3.290,3.289,192.201,212.339,198.252
0.460,46.885,3.288,3.287,192.209,212.332,198.255
0.462,46.901,3.286,3.285,192.222,212.326,198.264
0.463,46.921,3.283,3.282,192.238,212.324,198.276
0.465,46.945,3.281,3.281,192.255,212.327,198.291
0.466,46.971,3.279,3.280,192.274,212.336,198.307
0.467,46.999,3.276,3.279,192.292,212.351,198.322
0.469,47.027,3.269,3.273,192.312,212.368,198.334
0.470,47.053,3.257,3.261,192.332,212.382,198.339
0.472,47.076,3.235,3.240,192.354,212.391,198.335
0.473,47.105,3.203,3.207,192.377,212.389,198.319
0.474,47.148,3.157,3.158,192.403,212.372,198.289
0.476,47.213,3.096,3.093,192.431,212.337,198.241
0.477,47.308,3.020,3.012,192.463,212.278,198.174
0.479,47.437,2.932,2.919,192.497,212.191,198.084
0.480,47.607,2.834,2.817,192.536,212.073,197.969
0.481,47.817,2.730,2.712,192.579,211.923,197.829
0.483,48.060,2.621,2.607,192.627,211.749,197.666
0.484,48.328,2.512,2.505,192.680,211.559,197.484
0.485,48.613,2.403,2.410,192.738,211.361,197.288
0.487,48.908,2.299,2.325,192.802,211.161,197.080
0.488,49.205,2.199,2.249,192.873,210.970,196.865
0.490,49.497,2.107,2.183,192.951,210.793,196.646
0.491,49.778,2.024,2.125,193.036,210.640,196.426
0.492,50.042,1.951,2.076,193.128,210.518,196.210
0.494,50.288,1.892,2.035,193.228,210.435,196.002
0.495,50.519,1.846,2.002,193.336,210.392,195.802
0.497,50.738,1.815,1.977,193.448,210.381,195.614
0.498,50.949,1.797,1.959,193.562,210.395,195.438
0.499,51.150,1.789,1.944,193.676,210.428,195.275
0.501,51.340,1.789,1.933,193.787,210.471,195.126
0.502,51.516,1.793,1.923,193.892,210.516,194.993
0.503,51.673,1.798,1.912,193.989,210.557,194.877
0.505,51.807,1.803,1.900,194.075,210.586,194.779
0.506,51.915,1.805,1.885,194.149,210.595,194.700
0.508,51.999,1.803,1.867,194.206,210.577,194.642
0.509,52.072,1.799,1.847,194.249,210.531,194.602
0.510,52.151,1.793,1.827,194.278,210.462,194.579
0.512,52.243,1.786,1.807,194.297,210.373,194.571
0.513,52.348,1.778,1.789,194.308,210.268,194.573
0.515,52.465,1.772,1.774,194.314,210.152,194.585
0.516,52.589,1.766,1.763,194.318,210.029,194.602
0.517,52.718,1.762,1.756,194.321,209.902,194.623
0.519,52.845,1.760,1.753,194.327,209.777,194.644
0.520,52.967,1.758,1.752,194.337,209.657,194.663
0.521,53.081,1.758,1.753,194.355,209.545,194.678
0.523,53.185,1.758,1.755,194.380,209.445,194.688
0.524,53.280,1.759,1.758,194.410,209.355,194.694
0.526,53.367,1.761,1.761,194.443,209.275,194.698
0.527,53.445,1.762,1.764,194.478,209.204,194.699
0.528,53.514,1.765,1.767,194.511,209.144,194.699
0.530,53.574,1.768,1.770,194.541,209.093,194.699
0.531,53.623,1.772,1.773,194.567,209.051,194.701
0.533,53.661,1.777,1.778,194.586,209.018,194.704
0.534,53.687,1.783,1.784,194.596,208.994,194.710
0.535,53.706,1.791,1.791,194.595,208.978,194.719
0.537,53.723,1.801,1.801,194.586,208.970,194.731
0.538,53.742,1.811,1.810,194.572,208.967,194.744
0.540,53.761,1.818,1.818,194.557,208.968,194.755
0.541,53.778,1.823,1.823,194.543,208.971,194.764
0.542,53.788,1.823,1.823,194.534,208.975,194.767
0.544,53.793,1.816,1.816,194.534,208.978,194.763
0.545,53.810,1.801,1.801,194.545,208.978,194.751
0.546,53.845,1.776,1.776,194.572,208.974,194.727
0.548,53.904,1.742,1.743,194.617,208.963,194.691
0.549,53.988,1.702,1.702,194.683,208.946,194.642
0.551,54.095,1.657,1.657,194.765,208.919,194.581
0.552,54.217,1.609,1.609,194.860,208.881,194.512
0.553,54.352,1.561,1.561,194.961,208.831,194.439
0.555,54.492,1.514,1.514,195.062,208.768,194.365
0.556,54.636,1.471,1.471,195.159,208.689,194.293
0.558,54.780,1.434,1.433,195.246,208.594,194.228
0.559,54.925,1.401,1.401,195.317,208.481,194.173
0.560,55.072,1.374,1.374,195.367,208.349,194.131
0.562,55.230,1.353,1.352,195.391,208.195,194.106
0.563,55.405,1.337,1.337,195.385,208.020,194.100
0.564,55.600,1.329,1.328,195.353,207.828,194.110
