"T","Distance","Radius","FreeRadius","X","Y","Z"
0.000,0.000,1.593,1.593,-77.453,-60.812,-4.611
0.001,0.074,1.616,1.616,-77.410,-60.832,-4.554
0.003,0.148,1.638,1.638,-77.366,-60.853,-4.500
0.004,0.219,1.661,1.661,-77.321,-60.877,-4.450
0.006,0.288,1.685,1.685,-77.273,-60.902,-4.407
0.007,0.356,1.709,1.709,-77.221,-60.931,-4.374
0.009,0.424,1.734,1.734,-77.165,-60.964,-4.353
0.010,0.497,1.760,1.760,-77.104,-61.003,-4.347
0.012,0.578,1.787,1.787,-77.036,-61.047,-4.358
0.013,0.674,1.816,1.816,-76.962,-61.098,-4.388
0.014,0.787,1.847,1.847,-76.879,-61.156,-4.440
0.016,0.921,1.882,1.882,-76.789,-61.222,-4.514
0.017,1.071,1.920,1.920,-76.694,-61.294,-4.604
0.019,1.233,1.963,1.963,-76.595,-61.371,-4.708
0.020,1.404,2.012,2.012,-76.495,-61.451,-4.820
0.022,1.578,2.066,2.066,-76.395,-61.533,-4.938
0.023,1.751,2.123,2.123,-76.299,-61.616,-5.055
0.025,1.919,2.183,2.183,-76.207,-61.698,-5.169
0.026,2.076,2.241,2.241,-76.123,-61.777,-5.275
0.028,2.218,2.297,2.297,-76.048,-61.854,-5.369
0.029,2.341,2.348,2.348,-75.984,-61.925,-5.447
0.030,2.446,2.393,2.393,-75.931,-61.991,-5.509
0.032,2.535,2.428,2.428,-75.889,-62.052,-5.558
0.033,2.608,2.456,2.456,-75.857,-62.106,-5.594
0.035,2.669,2.476,2.475,-75.833,-62.155,-5.621
0.036,2.718,2.488,2.488,-75.819,-62.198,-5.640
0.038,2.757,2.494,2.494,-75.812,-62.235,-5.653
0.039,2.789,2.495,2.494,-75.812,-62.265,-5.661
0.041,2.814,2.490,2.490,-75.819,-62.289,-5.667
0.042,2.836,2.480,2.481,-75.833,-62.305,-5.672
0.043,2.857,2.468,2.469,-75.850,-62.316,-5.678
0.045,2.878,2.454,2.455,-75.869,-62.322,-5.685
0.046,2.896,2.441,2.443,-75.885,-62.326,-5.691
0.048,2.909,2.431,2.432,-75.896,-62.330,-5.698
0.049,2.918,2.424,2.425,-75.898,-62.335,-5.704
0.051,2.934,2.423,2.423,-75.887,-62.345,-5.710
0.052,2.965,2.430,2.428,-75.860,-62.361,-5.715
0.054,3.018,2.444,2.440,-75.814,-62.385,-5.719
0.055,3.095,2.466,2.461,-75.744,-62.419,-5.721
0.057,3.201,2.496,2.491,-75.649,-62.466,-5.722
0.058,3.333,2.535,2.530,-75.531,-62.525,-5.722
0.059,3.484,2.583,2.581,-75.397,-62.594,-5.720
0.061,3.648,2.641,2.642,-75.253,-62.673,-5.718
0.062,3.818,2.708,2.714,-75.106,-62.758,-5.714
0.064,3.989,2.778,2.792,-74.962,-62.850,-5.710
0.065,4.154,2.849,2.870,-74.828,-62.946,-5.706
0.067,4.307,2.915,2.943,-74.711,-63.045,-5.702
0.068,4.445,2.973,3.006,-74.617,-63.145,-5.698
0.070,4.563,3.016,3.055,-74.553,-63.245,-5.694
0.071,4.666,3.042,3.082,-74.523,-63.343,-5.691
0.072,4.762,3.048,3.087,-74.523,-63.439,-5.689
0.074,4.857,3.036,3.071,-74.549,-63.531,-5.688
0.075,4.957,3.009,3.040,-74.593,-63.620,-5.687
0.077,5.059,2.971,2.996,-74.652,-63.704,-5.687
0.078,5.162,2.926,2.944,-74.719,-63.782,-5.688
0.080,5.263,2.875,2.888,-74.790,-63.854,-5.690
0.081,5.358,2.824,2.832,-74.859,-63.920,-5.692
0.083,5.442,2.773,2.778,-74.920,-63.977,-5.695
0.084,5.512,2.726,2.728,-74.969,-64.026,-5.699
0.086,5.565,2.685,2.685,-75.003,-64.067,-5.703
0.087,5.604,2.650,2.650,-75.023,-64.100,-5.707
0.088,5.630,2.624,2.624,-75.032,-64.124,-5.709
0.090,5.647,2.608,2.608,-75.031,-64.141,-5.709
0.091,5.661,2.606,2.606,-75.021,-64.151,-5.707
0.093,5.680,2.616,2.616,-75.003,-64.154,-5.701
0.094,5.706,2.636,2.636,-74.980,-64.150,-5.690
0.096,5.739,2.665,2.665,-74.952,-64.140,-5.675
0.097,5.780,2.699,2.699,-74.922,-64.124,-5.653
0.099,5.827,2.735,2.735,-74.890,-64.103,-5.625
0.100,5.878,2.772,2.772,-74.858,-64.081,-5.592
0.101,5.929,2.806,2.806,-74.826,-64.062,-5.557
0.103,5.974,2.835,2.835,-74.797,-64.051,-5.524
0.104,6.015,2.857,2.857,-74.770,-64.054,-5.494
0.106,6.053,2.868,2.868,-74.748,-64.074,-5.470
0.107,6.101,2.868,2.868,-74.731,-64.116,-5.455
0.109,6.171,2.852,2.852,-74.721,-64.186,-5.451
0.110,6.273,2.820,2.820,-74.718,-64.287,-5.462
0.112,6.414,2.768,2.768,-74.723,-64.425,-5.489
0.113,6.594,2.696,2.697,-74.738,-64.599,-5.534
0.114,6.806,2.612,2.612,-74.759,-64.801,-5.592
0.116,7.040,2.520,2.521,-74.786,-65.023,-5.661
0.117,7.286,2.427,2.428,-74.816,-65.255,-5.737
0.119,7.536,2.339,2.339,-74.849,-65.490,-5.815
0.120,7.779,2.261,2.261,-74.882,-65.718,-5.893
0.122,8.007,2.200,2.200,-74.913,-65.932,-5.968
0.123,8.210,2.158,2.157,-74.942,-66.121,-6.034
0.125,8.378,2.132,2.130,-74.966,-66.278,-6.090
0.126,8.503,2.118,2.117,-74.984,-66.394,-6.131
0.128,8.586,2.115,2.113,-74.996,-66.472,-6.158
0.129,8.633,2.118,2.117,-75.002,-66.517,-6.173
0.130,8.650,2.125,2.124,-75.004,-66.533,-6.178
0.132,8.657,2.131,2.132,-75.002,-66.528,-6.175
0.133,8.681,2.137,2.139,-74.997,-66.505,-6.166
0.135,8.717,2.141,2.146,-74.990,-66.472,-6.153
0.136,8.759,2.146,2.152,-74.982,-66.434,-6.139
0.138,8.800,2.151,2.157,-74.974,-66.396,-6.125
0.139,8.835,2.157,2.162,-74.965,-66.364,-6.113
0.141,8.860,2.164,2.167,-74.958,-66.342,-6.106
0.142,8.874,2.175,2.172,-74.952,-66.330,-6.101
0.143,8.880,2.187,2.177,-74.948,-66.326,-6.101
0.145,8.885,2.200,2.181,-74.945,-66.329,-6.103
0.146,8.896,2.212,2.184,-74.943,-66.338,-6.109
0.148,8.913,2.222,2.186,-74.944,-66.352,-6.117
0.149,8.934,2.228,2.186,-74.947,-66.371,-6.127
0.151,8.959,2.229,2.183,-74.953,-66.392,-6.139
0.152,8.987,2.223,2.177,-74.960,-66.415,-6.153
0.154,9.017,2.211,2.168,-74.971,-66.439,-6.169
0.155,9.049,2.194,2.158,-74.984,-66.463,-6.185
0.157,9.080,2.175,2.148,-74.998,-66.486,-6.201
0.158,9.111,2.157,2.138,-75.013,-66.508,-6.216
0.159,9.139,2.140,2.129,-75.028,-66.527,-6.230
0.161,9.164,2.127,2.124,-75.041,-66.544,-6.242
0.162,9.184,2.121,2.123,-75.052,-66.558,-6.251
0.164,9.197,2.121,2.126,-75.061,-66.568,-6.256
0.165,9.204,2.124,2.130,-75.066,-66.572,-6.256
0.167,9.209,2.128,2.133,-75.066,-66.572,-6.251
0.168,9.222,2.131,2.134,-75.061,-66.566,-6.241
0.170,9.239,2.128,2.130,-75.055,-66.558,-6.228
0.171,9.256,2.119,2.119,-75.051,-66.549,-6.213
0.172,9.269,2.100,2.100,-75.053,-66.545,-6.202
0.174,9.283,2.070,2.071,-75.065,-66.546,-6.195
0.175,9.311,2.032,2.034,-75.091,-66.558,-6.196
0.177,9.362,1.987,1.989,-75.134,-66.582,-6.207
0.178,9.442,1.936,1.939,-75.199,-66.622,-6.232
0.180,9.557,1.881,1.884,-75.289,-66.682,-6.273
0.181,9.713,1.824,1.825,-75.408,-66.763,-6.332
0.183,9.909,1.766,1.763,-75.555,-66.867,-6.410
0.184,10.135,1.708,1.700,-75.723,-66.987,-6.500
0.186,10.381,1.650,1.638,-75.907,-67.118,-6.599
0.187,10.638,1.594,1.578,-76.098,-67.255,-6.701
0.188,10.895,1.538,1.521,-76.291,-67.393,-6.801
0.190,11.142,1.485,1.471,-76.477,-67.527,-6.893
0.191,11.370,1.433,1.427,-76.651,-67.651,-6.973
0.193,11.569,1.383,1.393,-76.806,-67.759,-7.036
0.194,11.730,1.336,1.366,-76.934,-67.848,-7.075
0.196,11.846,1.293,1.346,-77.030,-67.912,-7.088
0.197,11.926,1.252,1.329,-77.096,-67.955,-7.076
0.199,11.987,1.215,1.313,-77.137,-67.985,-7.041
0.200,12.049,1.182,1.296,-77.159,-68.008,-6.989
0.201,12.121,1.154,1.275,-77.168,-68.032,-6.921
0.203,12.205,1.130,1.248,-77.167,-68.063,-6.843
0.204,12.302,1.111,1.216,-77.164,-68.108,-6.758
0.206,12.413,1.096,1.181,-77.163,-68.175,-6.669
0.207,12.543,1.085,1.147,-77.169,-68.270,-6.581
0.209,12.700,1.078,1.116,-77.189,-68.401,-6.496
0.210,12.889,1.074,1.092,-77.224,-68.569,-6.418
0.212,13.105,1.074,1.077,-77.271,-68.769,-6.348
0.213,13.343,1.076,1.074,-77.327,-68.992,-6.289
0.214,13.594,1.081,1.082,-77.388,-69.231,-6.241
0.216,13.851,1.087,1.098,-77.451,-69.478,-6.206
0.217,14.107,1.094,1.118,-77.512,-69.726,-6.187
0.219,14.354,1.102,1.140,-77.568,-69.966,-6.184
0.220,14.586,1.110,1.160,-77.614,-70.192,-6.199
0.222,14.795,1.116,1.175,-77.648,-70.396,-6.233
0.223,14.979,1.122,1.182,-77.665,-70.570,-6.289
0.225,15.142,1.126,1.181,-77.668,-70.715,-6.364
0.226,15.293,1.131,1.176,-77.659,-70.835,-6.457
0.228,15.440,1.136,1.170,-77.642,-70.934,-6.563
0.229,15.586,1.145,1.165,-77.621,-71.018,-6.681
0.230,15.733,1.156,1.165,-77.599,-71.090,-6.807
0.232,15.881,1.172,1.173,-77.581,-71.155,-6.939
0.233,16.029,1.193,1.192,-77.569,-71.218,-7.073
0.235,16.178,1.219,1.221,-77.568,-71.283,-7.207
0.236,16.328,1.250,1.259,-77.580,-71.354,-7.338
0.238,16.480,1.284,1.302,-77.609,-71.435,-7.464
0.239,16.636,1.321,1.350,-77.652,-71.524,-7.584
0.241,16.794,1.359,1.399,-77.707,-71.618,-7.698
0.242,16.952,1.398,1.447,-77.772,-71.714,-7.806
0.243,17.109,1.437,1.494,-77.843,-71.810,-7.908
0.245,17.263,1.476,1.537,-77.919,-71.903,-8.004
0.246,17.410,1.514,1.579,-77.996,-71.990,-8.094
0.248,17.547,1.551,1.619,-78.072,-72.068,-8.177
0.249,17.673,1.587,1.658,-78.145,-72.135,-8.254
0.251,17.783,1.622,1.696,-78.212,-72.188,-8.325
0.252,17.879,1.657,1.735,-78.271,-72.227,-8.390
0.254,17.964,1.689,1.775,-78.322,-72.257,-8.450
0.255,18.038,1.721,1.814,-78.364,-72.280,-8.507
0.257,18.106,1.753,1.854,-78.398,-72.300,-8.562
0.258,18.169,1.784,1.892,-78.422,-72.321,-8.617
0.259,18.231,1.816,1.929,-78.436,-72.347,-8.672
0.261,18.298,1.848,1.962,-78.439,-72.381,-8.728
0.262,18.374,1.882,1.993,-78.432,-72.427,-8.788
0.264,18.465,1.917,2.019,-78.413,-72.489,-8.852
0.265,18.575,1.954,2.041,-78.383,-72.569,-8.922
0.267,18.701,1.991,2.061,-78.346,-72.664,-8.995
0.268,18.837,2.028,2.079,-78.307,-72.772,-9.070
0.270,18.978,2.064,2.097,-78.270,-72.886,-9.144
0.271,19.119,2.099,2.115,-78.241,-73.004,-9.215
0.272,19.254,2.132,2.134,-78.226,-73.121,-9.280
0.274,19.380,2.163,2.156,-78.228,-73.233,-9.338
0.275,19.497,2.191,2.180,-78.253,-73.336,-9.387
0.277,19.607,2.218,2.206,-78.307,-73.426,-9.423
0.278,19.722,2.244,2.233,-78.393,-73.498,-9.446
0.280,19.854,2.270,2.262,-78.513,-73.552,-9.453
0.281,20.005,2.296,2.292,-78.660,-73.588,-9.448
0.283,20.173,2.323,2.323,-78.826,-73.611,-9.434
0.284,20.353,2.352,2.354,-79.004,-73.622,-9.412
0.286,20.538,2.382,2.385,-79.187,-73.624,-9.385
0.287,20.721,2.411,2.414,-79.368,-73.620,-9.356
0.288,20.894,2.439,2.442,-79.539,-73.613,-9.328
0.290,21.050,2.463,2.465,-79.692,-73.604,-9.302
0.291,21.181,2.484,2.485,-79.822,-73.597,-9.282
0.293,21.280,2.499,2.499,-79.920,-73.594,-9.269
0.294,21.349,2.508,2.507,-79.988,-73.595,-9.264
0.296,21.391,2.511,2.510,-80.030,-73.599,-9.266
0.297,21.413,2.510,2.509,-80.050,-73.606,-9.272
0.299,21.426,2.507,2.506,-80.053,-73.614,-9.282
0.300,21.444,2.503,2.503,-80.043,-73.623,-9.294
0.301,21.469,2.500,2.499,-80.024,-73.631,-9.307
0.303,21.496,2.498,2.498,-80.000,-73.637,-9.320
0.304,21.523,2.500,2.500,-79.976,-73.641,-9.331
0.306,21.545,2.505,2.505,-79.956,-73.642,-9.339
0.307,21.559,2.511,2.512,-79.943,-73.640,-9.344
0.309,21.567,2.519,2.520,-79.936,-73.635,-9.345
0.310,21.574,2.528,2.528,-79.935,-73.628,-9.344
0.312,21.581,2.536,2.536,-79.937,-73.622,-9.343
0.313,21.588,2.543,2.543,-79.942,-73.617,-9.340
0.314,21.595,2.549,2.549,-79.949,-73.616,-9.338
0.316,21.603,2.552,2.552,-79.956,-73.618,-9.338
0.317,21.613,2.553,2.553,-79.962,-73.626,-9.339
0.319,21.629,2.551,2.551,-79.967,-73.640,-9.344
0.320,21.653,2.546,2.546,-79.968,-73.663,-9.353
0.322,21.686,2.539,2.539,-79.968,-73.693,-9.366
0.323,21.725,2.528,2.528,-79.966,-73.727,-9.385
0.325,21.769,2.513,2.513,-79.966,-73.763,-9.410
0.326,21.817,2.497,2.497,-79.968,-73.798,-9.442
0.328,21.869,2.478,2.478,-79.975,-73.830,-9.482
0.329,21.925,2.458,2.458,-79.988,-73.856,-9.531
0.330,21.990,2.439,2.439,-80.009,-73.873,-9.589
0.332,22.065,2.420,2.420,-80.041,-73.879,-9.657
0.333,22.156,2.403,2.403,-80.084,-73.871,-9.737
0.335,22.265,2.389,2.389,-80.140,-73.847,-9.828
0.336,22.391,2.376,2.376,-80.209,-73.812,-9.928
0.338,22.533,2.365,2.365,-80.290,-73.769,-10.034
0.339,22.686,2.354,2.354,-80.385,-73.723,-10.146
0.341,22.847,2.342,2.342,-80.491,-73.679,-10.259
0.342,23.015,2.329,2.329,-80.609,-73.641,-10.372
0.343,23.186,2.314,2.314,-80.739,-73.615,-10.481
0.345,23.362,2.296,2.296,-80.879,-73.604,-10.586
0.346,23.541,2.275,2.275,-81.031,-73.613,-10.682
0.348,23.728,2.251,2.251,-81.193,-73.647,-10.768
0.349,23.924,2.222,2.222,-81.363,-73.707,-10.843
0.351,24.130,2.188,2.188,-81.540,-73.789,-10.911
0.352,24.345,2.149,2.149,-81.720,-73.889,-10.973
0.354,24.567,2.105,2.105,-81.900,-74.004,-11.032
0.355,24.791,2.054,2.054,-82.076,-74.130,-11.092
0.357,25.017,2.001,2.001,-82.247,-74.263,-11.154
0.358,25.238,1.947,1.947,-82.409,-74.398,-11.222
0.359,25.454,1.894,1.894,-82.558,-74.534,-11.298
0.361,25.661,1.846,1.846,-82.693,-74.665,-11.385
0.362,25.858,1.805,1.805,-82.810,-74.788,-11.485
0.364,26.047,1.774,1.774,-82.910,-74.903,-11.596
0.365,26.230,1.755,1.755,-82.995,-75.013,-11.716
0.367,26.408,1.745,1.745,-83.067,-75.118,-11.840
0.368,26.582,1.743,1.743,-83.129,-75.220,-11.967
0.370,26.750,1.747,1.747,-83.181,-75.320,-12.091
0.371,26.912,1.754,1.754,-83.227,-75.420,-12.211
0.372,27.069,1.763,1.763,-83.268,-75.521,-12.323
0.374,27.219,1.771,1.771,-83.307,-75.625,-12.423
0.375,27.362,1.777,1.777,-83.345,-75.734,-12.509
0.377,27.500,1.781,1.781,-83.383,-75.847,-12.579
0.378,27.636,1.782,1.782,-83.421,-75.965,-12.633
0.380,27.769,1.779,1.779,-83.458,-76.086,-12.674
0.381,27.900,1.774,1.774,-83.492,-76.210,-12.701
0.383,28.031,1.765,1.765,-83.525,-76.335,-12.717
0.384,28.160,1.753,1.753,-83.553,-76.462,-12.723
0.386,28.289,1.737,1.737,-83.577,-76.588,-12.719
0.387,28.417,1.718,1.718,-83.596,-76.714,-12.708
0.388,28.543,1.698,1.698,-83.608,-76.838,-12.690
0.390,28.666,1.676,1.676,-83.613,-76.959,-12.667
0.391,28.788,1.654,1.654,-83.612,-77.077,-12.638
0.393,28.907,1.632,1.632,-83.605,-77.191,-12.602
0.394,29.024,1.612,1.612,-83.595,-77.299,-12.558
0.396,29.139,1.594,1.594,-83.581,-77.400,-12.506
0.397,29.252,1.577,1.577,-83.565,-77.493,-12.443
0.399,29.366,1.560,1.560,-83.548,-77.578,-12.369
0.400,29.481,1.542,1.542,-83.533,-77.653,-12.283
0.401,29.600,1.522,1.522,-83.518,-77.718,-12.184
0.403,29.726,1.500,1.500,-83.507,-77.770,-12.070
0.404,29.861,1.474,1.474,-83.499,-77.811,-11.942
0.406,30.004,1.444,1.444,-83.491,-77.845,-11.804
0.407,30.151,1.412,1.412,-83.481,-77.876,-11.661
0.409,30.298,1.379,1.379,-83.465,-77.910,-11.518
0.410,30.444,1.347,1.347,-83.441,-77.952,-11.380
0.412,30.587,1.317,1.317,-83.405,-78.006,-11.253
0.413,30.728,1.292,1.292,-83.355,-78.077,-11.141
0.414,30.876,1.273,1.273,-83.286,-78.171,-11.050
0.416,31.040,1.260,1.260,-83.197,-78.292,-10.985
0.417,31.234,1.255,1.255,-83.083,-78.445,-10.950
0.419,31.463,1.257,1.257,-82.947,-78.628,-10.945
0.420,31.723,1.266,1.266,-82.792,-78.836,-10.965
0.422,32.006,1.284,1.284,-82.623,-79.060,-11.006
0.423,32.305,1.308,1.308,-82.445,-79.293,-11.061
0.425,32.609,1.341,1.341,-82.262,-79.528,-11.125
0.426,32.910,1.381,1.381,-82.079,-79.757,-11.192
0.428,33.198,1.426,1.426,-81.900,-79.974,-11.258
0.429,33.464,1.474,1.474,-81.730,-80.169,-11.316
0.430,33.698,1.523,1.523,-81.574,-80.338,-11.363
0.432,33.893,1.571,1.571,-81.436,-80.472,-11.392
0.433,34.052,1.615,1.615,-81.315,-80.575,-11.405
0.435,34.181,1.653,1.653,-81.211,-80.649,-11.405
0.436,34.284,1.685,1.685,-81.121,-80.699,-11.394
0.438,34.367,1.710,1.710,-81.045,-80.729,-11.375
0.439,34.437,1.729,1.729,-80.982,-80.742,-11.350
0.441,34.496,1.742,1.742,-80.930,-80.742,-11.321
0.442,34.548,1.750,1.750,-80.888,-80.734,-11.293
0.443,34.593,1.753,1.753,-80.854,-80.721,-11.266
0.445,34.630,1.752,1.752,-80.828,-80.706,-11.243
0.446,34.659,1.747,1.747,-80.809,-80.694,-11.226
0.448,34.680,1.741,1.741,-80.794,-80.683,-11.215
0.449,34.693,1.733,1.733,-80.784,-80.676,-11.210
0.451,34.701,1.726,1.726,-80.778,-80.672,-11.208
0.452,34.706,1.721,1.721,-80.774,-80.672,-11.212
0.454,34.715,1.719,1.719,-80.772,-80.677,-11.219
0.455,34.729,1.722,1.722,-80.771,-80.687,-11.229
0.457,34.750,1.730,1.730,-80.769,-80.702,-11.242
0.458,34.777,1.741,1.741,-80.767,-80.724,-11.258
0.459,34.811,1.753,1.753,-80.763,-80.753,-11.276
0.461,34.853,1.765,1.765,-80.756,-80.790,-11.295
0.462,34.904,1.774,1.774,-80.747,-80.835,-11.316
0.464,34.964,1.778,1.778,-80.734,-80.889,-11.338
0.465,35.034,1.777,1.777,-80.716,-80.953,-11.360
0.467,35.115,1.769,1.769,-80.695,-81.028,-11.383
0.468,35.207,1.757,1.757,-80.668,-81.114,-11.406
0.470,35.313,1.741,1.741,-80.635,-81.212,-11.427
0.471,35.432,1.725,1.725,-80.597,-81.323,-11.449
0.472,35.566,1.710,1.710,-80.552,-81.447,-11.468
0.474,35.714,1.698,1.698,-80.500,-81.585,-11.487
0.475,35.873,1.691,1.691,-80.443,-81.732,-11.504
0.477,36.039,1.689,1.689,-80.381,-81.886,-11.520
0.478,36.208,1.691,1.691,-80.317,-82.041,-11.535
0.480,36.377,1.695,1.695,-80.251,-82.195,-11.549
0.481,36.540,1.699,1.699,-80.185,-82.345,-11.562
0.483,36.695,1.702,1.702,-80.120,-82.485,-11.575
0.484,36.838,1.701,1.701,-80.057,-82.612,-11.588
0.486,36.964,1.696,1.696,-79.998,-82.723,-11.600
0.487,37.070,1.685,1.685,-79.944,-82.813,-11.612
0.488,37.157,1.670,1.670,-79.897,-82.886,-11.623
0.490,37.227,1.650,1.650,-79.861,-82.945,-11.633
0.491,37.284,1.626,1.626,-79.837,-82.997,-11.638
0.493,37.334,1.598,1.598,-79.830,-83.046,-11.639
0.494,37.388,1.566,1.566,-79.841,-83.098,-11.633
0.496,37.459,1.532,1.532,-79.874,-83.159,-11.620
0.497,37.556,1.497,1.497,-79.932,-83.235,-11.597
0.499,37.688,1.463,1.463,-80.017,-83.330,-11.564
0.500,37.861,1.434,1.434,-80.133,-83.450,-11.519
0.501,38.078,1.412,1.412,-80.281,-83.599,-11.461
0.503,38.331,1.400,1.400,-80.453,-83.771,-11.393
0.504,38.609,1.401,1.401,-80.644,-83.959,-11.319
0.506,38.901,1.418,1.418,-80.844,-84.156,-11.240
0.507,39.196,1.449,1.449,-81.045,-84.356,-11.161
0.509,39.481,1.491,1.491,-81.240,-84.550,-11.085
0.510,39.748,1.537,1.537,-81.421,-84.732,-11.014
0.512,39.983,1.583,1.583,-81.580,-84.895,-10.952
0.513,40.177,1.625,1.625,-81.709,-85.031,-10.903
0.514,40.318,1.658,1.658,-81.800,-85.133,-10.868
0.516,40.405,1.676,1.676,-81.852,-85.200,-10.849
0.517,40.450,1.681,1.681,-81.874,-85.239,-10.842
0.519,40.465,1.675,1.675,-81.872,-85.254,-10.842
0.520,40.482,1.662,1.662,-81.855,-85.253,-10.844
0.522,40.509,1.646,1.646,-81.831,-85.241,-10.847
0.523,40.537,1.631,1.631,-81.809,-85.225,-10.844
0.525,40.559,1.621,1.621,-81.796,-85.211,-10.832
0.526,40.585,1.620,1.620,-81.800,-85.205,-10.807
0.528,40.638,1.628,1.628,-81.830,-85.214,-10.765
0.529,40.730,1.643,1.643,-81.892,-85.242,-10.702
0.530,40.862,1.663,1.663,-81.984,-85.289,-10.619
0.532,41.026,1.686,1.686,-82.098,-85.351,-10.520
0.533,41.213,1.711,1.711,-82.228,-85.424,-10.407
0.535,41.416,1.734,1.734,-82.366,-85.505,-10.282
0.536,41.628,1.755,1.755,-82.507,-85.590,-10.149
0.538,41.840,1.772,1.772,-82.643,-85.674,-10.010
0.539,42.045,1.789,1.789,-82.767,-85.756,-9.868
0.541,42.237,1.805,1.805,-82.873,-85.830,-9.726
0.542,42.409,1.823,1.823,-82.953,-85.893,-9.587
0.543,42.562,1.844,1.844,-83.005,-85.944,-9.453
0.545,42.698,1.869,1.869,-83.033,-85.984,-9.326
0.546,42.821,1.900,1.900,-83.039,-86.016,-9.207
0.548,42.934,1.936,1.936,-83.030,-86.041,-9.098
0.549,43.036,1.973,1.973,-83.009,-86.064,-9.000
0.551,43.128,2.009,2.009,-82.980,-86.085,-8.916
0.552,43.207,2.041,2.041,-82.949,-86.107,-8.846
0.554,43.273,2.066,2.066,-82.920,-86.132,-8.793
0.555,43.326,2.081,2.081,-82.896,-86.163,-8.757
0.557,43.371,2.084,2.084,-82.882,-86.203,-8.741
0.558,43.419,2.075,2.075,-82.880,-86.251,-8.742
0.559,43.477,2.057,2.057,-82.887,-86.307,-8.757
0.561,43.548,2.032,2.032,-82.904,-86.370,-8.782
0.562,43.628,2.003,2.003,-82.928,-86.441,-8.813
0.564,43.718,1.972,1.972,-82.959,-86.518,-8.847
0.565,43.814,1.941,1.941,-82.995,-86.601,-8.879
0.567,43.915,1.914,1.914,-83.036,-86.689,-8.907
0.568,44.020,1.890,1.890,-83.080,-86.782,-8.927
0.570,44.128,1.869,1.869,-83.126,-86.880,-8.934
0.571,44.240,1.851,1.851,-83.173,-86.981,-8.926
0.572,44.357,1.835,1.835,-83.223,-87.085,-8.908
0.574,44.477,1.822,1.822,-83.274,-87.190,-8.883
0.575,44.600,1.810,1.810,-83.329,-87.297,-8.855
0.577,44.724,1.799,1.799,-83.387,-87.403,-8.829
0.578,44.847,1.790,1.790,-83.449,-87.507,-8.808
0.580,44.970,1.781,1.781,-83.516,-87.609,-8.798
0.581,45.092,1.774,1.774,-83.588,-87.708,-8.802
0.583,45.216,1.768,1.768,-83.666,-87.803,-8.824
0.584,45.347,1.763,1.763,-83.750,-87.892,-8.869
0.586,45.487,1.759,1.759,-83.840,-87.976,-8.937
0.587,45.639,1.757,1.756,-83.934,-88.057,-9.023
0.588,45.800,1.755,1.754,-84.031,-88.137,-9.125
0.590,45.970,1.753,1.752,-84.130,-88.218,-9.237
0.591,46.146,1.751,1.750,-84.228,-88.303,-9.355
0.593,46.325,1.748,1.747,-84.325,-88.392,-9.477
0.594,46.505,1.743,1.742,-84.418,-88.489,-9.596
0.596,46.684,1.735,1.735,-84.507,-88.595,-9.711
0.597,46.862,1.725,1.726,-84.589,-88.712,-9.816
0.599,47.037,1.714,1.716,-84.664,-88.842,-9.907
0.600,47.211,1.704,1.707,-84.731,-88.982,-9.986
