"T","Distance","Radius","FreeRadius","X","Y","Z"
0.000,0.000,0.890,0.890,233.910,231.994,246.195
0.001,0.252,1.004,1.004,233.710,232.024,246.345
0.002,0.501,1.117,1.117,233.512,232.053,246.494
0.003,0.745,1.226,1.226,233.319,232.082,246.640
0.004,0.981,1.332,1.332,233.133,232.109,246.782
0.006,1.205,1.431,1.431,232.957,232.135,246.918
0.007,1.416,1.523,1.523,232.793,232.160,247.048
0.008,1.610,1.605,1.605,232.643,232.182,247.170
0.009,1.785,1.678,1.678,232.511,232.202,247.282
0.010,1.938,1.738,1.738,232.398,232.219,247.384
0.011,2.066,1.786,1.786,232.306,232.232,247.474
0.012,2.169,1.821,1.821,232.239,232.243,247.550
0.013,2.247,1.846,1.846,232.197,232.250,247.615
0.014,2.305,1.862,1.862,232.178,232.253,247.670
0.016,2.352,1.872,1.872,232.182,232.254,247.717
0.017,2.401,1.876,1.876,232.210,232.253,247.757
0.018,2.463,1.877,1.877,232.261,232.249,247.794
0.019,2.544,1.875,1.876,232.334,232.243,247.828
0.020,2.646,1.874,1.874,232.430,232.236,247.861
0.021,2.768,1.875,1.875,232.547,232.227,247.896
0.022,2.913,1.877,1.877,232.685,232.216,247.935
0.023,3.078,1.881,1.881,232.845,232.205,247.978
0.024,3.262,1.888,1.887,233.022,232.193,248.026
0.025,3.460,1.896,1.896,233.212,232.180,248.077
0.027,3.666,1.906,1.906,233.412,232.166,248.129
0.028,3.877,1.919,1.918,233.616,232.150,248.180
0.029,4.088,1.933,1.932,233.820,232.133,248.230
0.030,4.294,1.949,1.949,234.020,232.114,248.275
0.031,4.490,1.967,1.967,234.211,232.094,248.314
0.032,4.673,1.986,1.987,234.390,232.072,248.345
0.033,4.837,2.007,2.008,234.551,232.048,248.368
0.034,4.979,2.029,2.031,234.690,232.023,248.379
0.035,5.101,2.052,2.054,234.809,231.996,248.381
0.037,5.204,2.076,2.078,234.909,231.969,248.374
0.038,5.294,2.100,2.102,234.994,231.945,248.362
0.039,5.373,2.125,2.126,235.069,231.924,248.347
0.040,5.443,2.149,2.149,235.135,231.909,248.331
0.041,5.507,2.172,2.172,235.197,231.900,248.317
0.042,5.569,2.196,2.194,235.259,231.900,248.308
0.043,5.634,2.220,2.217,235.323,231.910,248.304
0.044,5.707,2.246,2.241,235.392,231.931,248.310
0.045,5.795,2.273,2.267,235.472,231.966,248.327
0.047,5.900,2.302,2.296,235.561,232.013,248.355
0.048,6.021,2.335,2.329,235.660,232.071,248.393
0.049,6.155,2.371,2.367,235.767,232.137,248.439
0.050,6.299,2.412,2.410,235.882,232.209,248.489
0.051,6.451,2.458,2.460,236.002,232.285,248.543
0.052,6.607,2.508,2.515,236.126,232.362,248.598
0.053,6.765,2.562,2.574,236.254,232.438,248.651
0.054,6.923,2.617,2.635,236.384,232.511,248.702
0.055,7.076,2.671,2.696,236.514,232.579,248.747
0.057,7.224,2.723,2.754,236.644,232.639,248.784
0.058,7.366,2.771,2.807,236.773,232.690,248.813
0.059,7.501,2.814,2.854,236.899,232.734,248.834
0.060,7.629,2.849,2.891,237.021,232.772,248.849
0.061,7.752,2.875,2.918,237.138,232.806,248.858
0.062,7.868,2.892,2.934,237.250,232.838,248.863
0.063,7.977,2.902,2.940,237.354,232.869,248.864
0.064,8.079,2.906,2.939,237.451,232.901,248.863
0.065,8.173,2.906,2.933,237.539,232.935,248.861
0.067,8.260,2.904,2.925,237.616,232.973,248.859
0.068,8.339,2.903,2.917,237.682,233.017,248.857
0.069,8.413,2.903,2.911,237.737,233.067,248.857
0.070,8.484,2.907,2.910,237.782,233.122,248.859
0.071,8.553,2.917,2.916,237.817,233.181,248.861
0.072,8.620,2.934,2.930,237.845,233.242,248.864
0.073,8.685,2.956,2.951,237.868,233.303,248.868
0.074,8.748,2.982,2.976,237.885,233.363,248.871
0.075,8.807,3.010,3.005,237.899,233.420,248.874
0.076,8.861,3.040,3.035,237.912,233.473,248.877
0.078,8.909,3.068,3.065,237.924,233.520,248.879
0.079,8.951,3.095,3.093,237.937,233.559,248.879
0.080,8.985,3.118,3.117,237.952,233.589,248.879
0.081,9.012,3.136,3.136,237.968,233.612,248.877
0.082,9.034,3.147,3.148,237.984,233.626,248.874
0.083,9.049,3.153,3.154,237.997,233.634,248.872
0.084,9.059,3.154,3.156,238.007,233.635,248.870
0.085,9.066,3.152,3.153,238.012,233.630,248.870
0.086,9.076,3.147,3.148,238.010,233.620,248.871
0.088,9.094,3.140,3.141,238.000,233.606,248.874
0.089,9.121,3.131,3.132,237.980,233.588,248.880
0.090,9.160,3.123,3.123,237.949,233.566,248.889
0.091,9.210,3.115,3.115,237.907,233.542,248.901
0.092,9.267,3.109,3.109,237.858,233.517,248.915
0.093,9.324,3.105,3.104,237.808,233.495,248.931
0.094,9.375,3.101,3.101,237.763,233.476,248.945
0.095,9.412,3.100,3.099,237.730,233.464,248.957
0.096,9.430,3.099,3.098,237.714,233.460,248.966
0.098,9.442,3.099,3.099,237.722,233.467,248.968
0.099,9.485,3.100,3.100,237.761,233.487,248.964
0.100,9.569,3.102,3.102,237.835,233.523,248.951
0.101,9.700,3.104,3.104,237.952,233.576,248.927
0.102,9.883,3.107,3.107,238.116,233.649,248.892
0.103,10.112,3.110,3.110,238.323,233.740,248.847
0.104,10.378,3.114,3.114,238.561,233.843,248.794
0.105,10.668,3.119,3.119,238.822,233.955,248.736
0.106,10.972,3.125,3.125,239.096,234.072,248.674
0.108,11.279,3.133,3.133,239.373,234.190,248.611
0.109,11.579,3.141,3.141,239.642,234.305,248.549
0.110,11.859,3.152,3.152,239.895,234.412,248.491
0.111,12.110,3.164,3.164,240.122,234.507,248.439
0.112,12.321,3.178,3.178,240.311,234.587,248.396
0.113,12.480,3.194,3.194,240.456,234.646,248.363
0.114,12.589,3.210,3.210,240.555,234.687,248.340
0.115,12.655,3.226,3.226,240.614,234.710,248.326
0.116,12.684,3.241,3.241,240.641,234.719,248.321
0.118,12.686,3.254,3.254,240.641,234.717,248.322
0.119,12.710,3.264,3.264,240.620,234.707,248.327
0.120,12.749,3.272,3.272,240.586,234.690,248.337
0.121,12.797,3.274,3.274,240.543,234.671,248.349
0.122,12.847,3.272,3.272,240.500,234.651,248.362
0.123,12.892,3.266,3.266,240.460,234.633,248.374
0.124,12.924,3.257,3.257,240.432,234.621,248.384
0.125,12.943,3.247,3.247,240.417,234.614,248.393
0.126,12.950,3.238,3.238,240.413,234.613,248.399
0.127,12.957,3.232,3.232,240.417,234.616,248.403
0.129,12.970,3.229,3.229,240.427,234.622,248.407
0.130,12.988,3.231,3.231,240.442,234.632,248.409
0.131,13.009,3.241,3.241,240.460,234.643,248.411
0.132,13.030,3.260,3.260,240.477,234.655,248.412
0.133,13.049,3.286,3.286,240.492,234.668,248.414
0.134,13.066,3.318,3.318,240.502,234.680,248.416
0.135,13.077,3.354,3.354,240.506,234.690,248.419
0.136,13.087,3.389,3.389,240.504,234.699,248.423
0.137,13.098,3.422,3.422,240.496,234.706,248.427
0.139,13.111,3.451,3.451,240.486,234.711,248.431
0.140,13.123,3.472,3.472,240.475,234.715,248.435
0.141,13.133,3.484,3.484,240.466,234.717,248.439
0.142,13.139,3.483,3.483,240.461,234.719,248.442
0.143,13.141,3.469,3.469,240.462,234.719,248.444
0.144,13.151,3.444,3.444,240.472,234.718,248.445
0.145,13.171,3.410,3.410,240.492,234.717,248.443
0.146,13.204,3.369,3.369,240.525,234.715,248.440
0.147,13.250,3.322,3.322,240.571,234.713,248.435
0.149,13.305,3.272,3.272,240.626,234.711,248.433
0.150,13.365,3.221,3.221,240.686,234.712,248.436
0.151,13.427,3.170,3.170,240.746,234.717,248.448
0.152,13.491,3.122,3.122,240.804,234.727,248.473
0.153,13.557,3.078,3.077,240.853,234.742,248.515
0.154,13.633,3.035,3.035,240.891,234.765,248.576
0.155,13.726,2.992,2.992,240.913,234.797,248.661
0.156,13.846,2.950,2.949,240.914,234.839,248.773
0.157,14.000,2.905,2.904,240.892,234.892,248.916
0.159,14.192,2.856,2.856,240.842,234.957,249.091
0.160,14.419,2.803,2.803,240.770,235.031,249.292
0.161,14.672,2.744,2.744,240.680,235.112,249.514
0.162,14.944,2.677,2.677,240.576,235.198,249.751
0.163,15.227,2.603,2.603,240.465,235.286,249.995
0.164,15.512,2.523,2.523,240.350,235.374,250.241
0.165,15.793,2.441,2.441,240.237,235.459,250.483
0.166,16.060,2.358,2.359,240.130,235.538,250.715
0.167,16.305,2.278,2.279,240.034,235.610,250.929
0.169,16.521,2.204,2.204,239.955,235.672,251.120
0.170,16.702,2.136,2.137,239.895,235.721,251.284
0.171,16.850,2.080,2.080,239.853,235.759,251.420
0.172,16.969,2.036,2.036,239.827,235.786,251.534
0.173,17.065,2.007,2.006,239.813,235.805,251.626
0.174,17.141,1.991,1.990,239.808,235.817,251.701
0.175,17.202,1.985,1.984,239.810,235.824,251.761
0.176,17.251,1.989,1.988,239.816,235.826,251.810
0.177,17.292,1.999,1.998,239.822,235.825,251.851
0.178,17.327,2.014,2.013,239.826,235.822,251.886
0.180,17.359,2.032,2.031,239.825,235.820,251.918
0.181,17.393,2.050,2.050,239.817,235.819,251.951
0.182,17.430,2.067,2.067,239.802,235.820,251.984
0.183,17.470,2.081,2.082,239.782,235.821,252.019
0.184,17.513,2.091,2.093,239.759,235.824,252.055
0.185,17.558,2.098,2.101,239.734,235.827,252.093
0.186,17.604,2.101,2.105,239.711,235.830,252.132
0.187,17.650,2.101,2.106,239.691,235.833,252.173
0.188,17.695,2.098,2.103,239.675,235.836,252.216
0.190,17.741,2.092,2.096,239.666,235.839,252.260
0.191,17.788,2.082,2.085,239.665,235.840,252.307
0.192,17.837,2.070,2.070,239.674,235.840,252.356
0.193,17.891,2.055,2.052,239.693,235.839,252.406
0.194,17.948,2.038,2.030,239.718,235.836,252.457
0.195,18.007,2.020,2.007,239.746,235.833,252.509
0.196,18.065,2.001,1.985,239.775,235.829,252.560
0.197,18.122,1.984,1.966,239.802,235.824,252.609
0.198,18.174,1.968,1.950,239.824,235.818,252.656
0.200,18.222,1.956,1.939,239.839,235.812,252.700
0.201,18.263,1.947,1.935,239.844,235.805,252.741
0.202,18.301,1.943,1.941,239.835,235.798,252.777
0.203,18.341,1.945,1.956,239.811,235.791,252.808
0.204,18.388,1.950,1.979,239.773,235.785,252.836
0.205,18.445,1.957,2.006,239.723,235.785,252.863
0.206,18.509,1.962,2.034,239.667,235.793,252.892
0.207,18.581,1.963,2.058,239.607,235.813,252.927
0.208,18.662,1.958,2.076,239.548,235.848,252.970
0.210,18.757,1.942,2.084,239.493,235.901,253.025
0.211,18.870,1.915,2.078,239.446,235.977,253.095
0.212,19.008,1.872,2.054,239.412,236.077,253.183
0.213,19.177,1.812,2.009,239.393,236.206,253.292
0.214,19.386,1.736,1.944,239.395,236.367,253.425
0.215,19.633,1.649,1.865,239.416,236.557,253.582
0.216,19.912,1.556,1.775,239.455,236.772,253.755
0.217,20.214,1.460,1.678,239.507,237.003,253.942
0.218,20.528,1.366,1.580,239.570,237.244,254.135
0.220,20.847,1.278,1.484,239.641,237.487,254.329
0.221,21.161,1.202,1.396,239.715,237.725,254.518
0.222,21.460,1.141,1.319,239.790,237.952,254.698
0.223,21.735,1.099,1.257,239.862,238.161,254.862
0.224,21.976,1.077,1.213,239.929,238.344,255.005
0.225,22.175,1.072,1.183,239.986,238.494,255.121
0.226,22.326,1.080,1.166,240.032,238.608,255.208
0.227,22.435,1.098,1.160,240.068,238.691,255.270
0.228,22.508,1.123,1.163,240.095,238.746,255.309
0.229,22.550,1.151,1.173,240.113,238.777,255.330
0.231,22.567,1.180,1.188,240.125,238.789,255.336
0.232,22.575,1.205,1.206,240.129,238.786,255.331
0.233,22.593,1.223,1.225,240.129,238.772,255.318
0.234,22.620,1.234,1.243,240.124,238.752,255.302
0.235,22.649,1.239,1.262,240.116,238.729,255.285
0.236,22.676,1.238,1.279,240.106,238.708,255.273
0.237,22.697,1.232,1.295,240.094,238.691,255.267
0.238,22.715,1.224,1.309,240.082,238.679,255.268
0.239,22.732,1.214,1.320,240.071,238.669,255.278
0.241,22.754,1.203,1.330,240.063,238.661,255.296
0.242,22.784,1.193,1.336,240.058,238.654,255.325
0.243,22.824,1.185,1.338,240.058,238.646,255.364
0.244,22.876,1.179,1.338,240.064,238.636,255.415
0.245,22.941,1.177,1.335,240.077,238.623,255.478
0.246,23.022,1.178,1.331,240.099,238.606,255.553
0.247,23.119,1.182,1.327,240.130,238.584,255.643
0.248,23.234,1.191,1.324,240.172,238.556,255.746
0.249,23.364,1.203,1.323,240.222,238.524,255.862
0.251,23.507,1.221,1.325,240.278,238.488,255.989
0.252,23.660,1.243,1.331,240.339,238.451,256.124
0.253,23.820,1.271,1.343,240.401,238.415,256.267
0.254,23.984,1.304,1.360,240.462,238.381,256.414
0.255,24.149,1.341,1.382,240.521,238.350,256.566
0.256,24.313,1.381,1.409,240.574,238.325,256.719
0.257,24.473,1.422,1.439,240.621,238.308,256.872
0.258,24.629,1.463,1.471,240.657,238.299,257.022
0.259,24.778,1.502,1.504,240.683,238.300,257.170
0.261,24.921,1.539,1.539,240.697,238.311,257.312
0.262,25.058,1.572,1.572,240.702,238.329,257.447
0.263,25.189,1.600,1.605,240.699,238.352,257.576
0.264,25.311,1.622,1.636,240.689,238.379,257.695
0.265,25.425,1.638,1.664,240.674,238.407,257.804
0.266,25.529,1.650,1.690,240.655,238.436,257.902
0.267,25.621,1.658,1.714,240.633,238.462,257.988
0.268,25.700,1.664,1.734,240.611,238.485,258.059
0.269,25.763,1.668,1.752,240.588,238.502,258.116
0.271,25.810,1.671,1.766,240.567,238.512,258.156
0.272,25.843,1.674,1.777,240.548,238.516,258.183
0.273,25.866,1.678,1.784,240.532,238.513,258.200
0.274,25.884,1.684,1.788,240.520,238.508,258.212
0.275,25.899,1.692,1.789,240.511,238.499,258.220
0.276,25.913,1.703,1.789,240.507,238.490,258.231
0.277,25.932,1.716,1.788,240.508,238.482,258.247
0.278,25.958,1.731,1.789,240.515,238.475,258.272
0.279,25.999,1.750,1.792,240.527,238.473,258.311
0.280,26.058,1.772,1.798,240.547,238.475,258.366
0.282,26.139,1.797,1.809,240.573,238.483,258.442
0.283,26.241,1.826,1.827,240.606,238.498,258.538
0.284,26.361,1.858,1.851,240.645,238.515,258.650
0.285,26.495,1.893,1.881,240.689,238.533,258.776
0.286,26.639,1.930,1.916,240.737,238.550,258.910
0.287,26.790,1.969,1.954,240.788,238.564,259.051
0.288,26.943,2.007,1.994,240.841,238.571,259.195
0.289,27.095,2.044,2.033,240.894,238.571,259.337
0.290,27.243,2.079,2.072,240.948,238.559,259.475
0.292,27.386,2.111,2.107,241.001,238.535,259.605
0.293,27.521,2.139,2.139,241.052,238.495,259.723
0.294,27.649,2.163,2.164,241.100,238.441,259.829
0.295,27.773,2.181,2.184,241.147,238.374,259.923
0.296,27.894,2.195,2.199,241.192,238.297,260.005
0.297,28.013,2.205,2.209,241.236,238.214,260.077
0.298,28.128,2.211,2.215,241.279,238.127,260.139
0.299,28.240,2.214,2.216,241.321,238.038,260.192
0.300,28.347,2.213,2.215,241.363,237.950,260.237
0.302,28.448,2.209,2.210,241.405,237.867,260.275
0.303,28.541,2.203,2.203,241.448,237.790,260.306
0.304,28.624,2.195,2.194,241.491,237.723,260.331
0.305,28.699,2.184,2.184,241.534,237.666,260.351
0.306,28.765,2.173,2.172,241.579,237.620,260.367
0.307,28.825,2.161,2.160,241.624,237.583,260.382
0.308,28.880,2.148,2.147,241.669,237.555,260.396
0.309,28.931,2.136,2.135,241.714,237.534,260.410
0.310,28.982,2.124,2.124,241.759,237.520,260.427
0.312,29.031,2.113,2.113,241.804,237.513,260.447
0.313,29.083,2.104,2.104,241.848,237.510,260.472
0.314,29.137,2.097,2.097,241.892,237.512,260.504
0.315,29.195,2.091,2.091,241.935,237.518,260.544
0.316,29.260,2.085,2.084,241.978,237.526,260.592
0.317,29.332,2.077,2.076,242.020,237.534,260.650
0.318,29.412,2.066,2.065,242.062,237.541,260.717
0.319,29.500,2.050,2.049,242.105,237.543,260.794
0.320,29.599,2.027,2.026,242.149,237.540,260.882
0.322,29.708,1.996,1.995,242.195,237.529,260.980
0.323,29.829,1.955,1.955,242.243,237.507,261.090
0.324,29.965,1.903,1.903,242.294,237.473,261.211
0.325,30.116,1.840,1.842,242.348,237.425,261.343
0.326,30.284,1.771,1.774,242.405,237.360,261.488
0.327,30.472,1.700,1.703,242.467,237.277,261.644
0.328,30.674,1.630,1.634,242.531,237.179,261.810
0.329,30.888,1.565,1.570,242.597,237.069,261.981
0.330,31.110,1.511,1.515,242.663,236.949,262.155
0.331,31.334,1.469,1.473,242.729,236.823,262.328
0.333,31.558,1.446,1.447,242.793,236.693,262.499
0.334,31.776,1.444,1.443,242.854,236.563,262.662
0.335,31.984,1.464,1.459,242.910,236.435,262.816
0.336,32.178,1.502,1.493,242.961,236.312,262.957
0.337,32.353,1.554,1.541,243.005,236.197,263.083
0.338,32.507,1.615,1.599,243.041,236.093,263.190
0.339,32.639,1.680,1.662,243.070,236.000,263.279
0.340,32.752,1.745,1.728,243.093,235.917,263.352
0.341,32.847,1.804,1.790,243.110,235.844,263.411
0.343,32.926,1.854,1.847,243.121,235.781,263.458
0.344,32.991,1.890,1.893,243.128,235.727,263.493
0.345,33.043,1.910,1.927,243.131,235.682,263.518
0.346,33.085,1.915,1.949,243.131,235.645,263.536
0.347,33.116,1.908,1.962,243.129,235.615,263.548
0.348,33.140,1.893,1.966,243.125,235.593,263.555
0.349,33.156,1.871,1.965,243.120,235.578,263.559
0.350,33.167,1.846,1.960,243.114,235.569,263.561
0.351,33.174,1.821,1.951,243.108,235.565,263.563
0.353,33.180,1.798,1.943,243.102,235.565,263.564
0.354,33.187,1.781,1.934,243.097,235.567,263.567
0.355,33.194,1.770,1.929,243.092,235.571,263.572
0.356,33.204,1.765,1.925,243.089,235.575,263.580
0.357,33.217,1.765,1.922,243.088,235.578,263.593
0.358,33.235,1.769,1.920,243.089,235.580,263.611
0.359,33.260,1.774,1.919,243.092,235.578,263.635
0.360,33.292,1.781,1.918,243.098,235.573,263.667
0.361,33.332,1.786,1.915,243.107,235.564,263.705
0.363,33.379,1.789,1.912,243.118,235.551,263.748
0.364,33.431,1.789,1.907,243.132,235.535,263.796
0.365,33.488,1.785,1.900,243.149,235.517,263.846
0.366,33.546,1.777,1.891,243.168,235.496,263.898
0.367,33.607,1.765,1.881,243.190,235.474,263.950
0.368,33.667,1.752,1.870,243.213,235.451,264.000
0.369,33.726,1.737,1.859,243.239,235.427,264.047
0.370,33.783,1.721,1.848,243.267,235.403,264.091
0.371,33.837,1.706,1.839,243.297,235.379,264.129
0.373,33.888,1.692,1.830,243.328,235.357,264.162
0.374,33.935,1.680,1.824,243.360,235.335,264.189
0.375,33.980,1.671,1.820,243.393,235.315,264.212
0.376,34.021,1.665,1.817,243.424,235.296,264.232
0.377,34.059,1.660,1.815,243.455,235.280,264.248
0.378,34.094,1.656,1.813,243.483,235.267,264.262
0.379,34.124,1.652,1.810,243.509,235.257,264.275
0.380,34.151,1.649,1.805,243.532,235.250,264.286
0.381,34.172,1.645,1.797,243.551,235.247,264.297
0.382,34.190,1.639,1.785,243.565,235.248,264.308
0.384,34.207,1.631,1.768,243.575,235.252,264.320
0.385,34.223,1.620,1.746,243.585,235.257,264.332
0.386,34.241,1.607,1.719,243.597,235.261,264.344
0.387,34.262,1.592,1.688,243.615,235.261,264.356
0.388,34.292,1.576,1.655,243.642,235.255,264.367
0.389,34.334,1.559,1.622,243.681,235.241,264.378
0.390,34.394,1.542,1.589,243.734,235.216,264.388
0.391,34.476,1.525,1.558,243.806,235.179,264.396
0.392,34.583,1.510,1.530,243.899,235.126,264.403
0.394,34.720,1.496,1.507,244.016,235.055,264.409
0.395,34.888,1.483,1.489,244.158,234.966,264.413
0.396,35.081,1.474,1.478,244.320,234.861,264.420
0.397,35.294,1.466,1.471,244.497,234.743,264.430
0.398,35.521,1.460,1.469,244.684,234.615,264.447
0.399,35.758,1.456,1.469,244.876,234.479,264.474
0.400,35.999,1.453,1.472,245.068,234.338,264.514
0.401,36.239,1.452,1.476,245.254,234.196,264.569
0.402,36.476,1.453,1.480,245.429,234.054,264.641
0.404,36.707,1.454,1.483,245.589,233.916,264.734
0.405,36.931,1.457,1.485,245.729,233.784,264.850
0.406,37.151,1.460,1.485,245.844,233.660,264.990
0.407,37.368,1.465,1.484,245.936,233.545,265.149
0.408,37.584,1.470,1.483,246.008,233.439,265.322
0.409,37.797,1.477,1.484,246.062,233.341,265.504
0.410,38.006,1.484,1.485,246.098,233.251,265.689
0.411,38.208,1.492,1.490,246.120,233.170,265.873
0.412,38.399,1.501,1.497,246.130,233.098,266.049
0.414,38.574,1.512,1.509,246.129,233.033,266.213
0.415,38.731,1.522,1.525,246.119,232.977,266.358
0.416,38.863,1.534,1.547,246.103,232.930,266.480
0.417,38.968,1.546,1.571,246.083,232.890,266.576
0.418,39.049,1.559,1.598,246.060,232.858,266.647
0.419,39.110,1.572,1.625,246.037,232.833,266.697
0.420,39.154,1.584,1.653,246.016,232.815,266.732
0.421,39.185,1.597,1.678,245.999,232.804,266.755
0.422,39.204,1.609,1.700,245.988,232.798,266.769
0.424,39.215,1.620,1.717,245.985,232.798,266.780
0.425,39.230,1.630,1.729,245.993,232.803,266.792
0.426,39.257,1.639,1.735,246.013,232.813,266.808
0.427,39.302,1.648,1.736,246.048,232.827,266.832
0.428,39.367,1.656,1.733,246.098,232.844,266.869
0.429,39.450,1.663,1.727,246.163,232.864,266.917
0.430,39.548,1.671,1.720,246.240,232.886,266.974
0.431,39.657,1.678,1.713,246.324,232.909,267.038
0.432,39.772,1.686,1.706,246.413,232.933,267.108
0.433,39.890,1.694,1.702,246.504,232.956,267.180
0.435,40.008,1.704,1.702,246.594,232.977,267.253
0.436,40.121,1.714,1.705,246.680,232.996,267.324
0.437,40.226,1.725,1.713,246.758,233.011,267.392
0.438,40.318,1.737,1.723,246.826,233.023,267.453
0.439,40.395,1.750,1.736,246.880,233.029,267.507
0.440,40.458,1.763,1.752,246.922,233.031,267.554
0.441,40.508,1.778,1.769,246.953,233.030,267.594
0.442,40.550,1.793,1.787,246.976,233.025,267.629
0.443,40.585,1.809,1.806,246.991,233.019,267.660
0.445,40.616,1.825,1.825,247.003,233.013,267.688
0.446,40.646,1.842,1.844,247.012,233.006,267.715
0.447,40.674,1.859,1.862,247.021,233.000,267.741
0.448,40.704,1.875,1.879,247.032,232.997,267.769
0.449,40.737,1.890,1.894,247.046,232.996,267.798
0.450,40.776,1.904,1.907,247.067,233.000,267.831
0.451,40.821,1.916,1.919,247.093,233.007,267.867
0.452,40.870,1.925,1.927,247.123,233.017,267.904
