"T","Distance","Radius","FreeRadius","X","Y","Z"
0.000,0.000,0.896,0.896,221.610,161.173,165.571
0.001,0.090,0.921,0.921,221.569,161.230,165.516
0.003,0.178,0.945,0.945,221.528,161.287,165.461
0.004,0.264,0.968,0.968,221.489,161.343,165.409
0.006,0.348,0.990,0.990,221.450,161.397,165.359
0.007,0.427,1.009,1.009,221.412,161.449,165.313
0.009,0.500,1.025,1.025,221.376,161.498,165.271
0.010,0.568,1.038,1.038,221.342,161.544,165.235
0.012,0.629,1.047,1.047,221.310,161.585,165.204
0.013,0.681,1.052,1.052,221.281,161.623,165.181
0.014,0.726,1.055,1.055,221.254,161.655,165.166
0.016,0.762,1.056,1.056,221.231,161.681,165.159
0.017,0.790,1.055,1.055,221.212,161.702,165.163
0.019,0.815,1.054,1.054,221.196,161.716,165.174
0.020,0.837,1.052,1.052,221.183,161.725,165.191
0.022,0.859,1.051,1.051,221.174,161.730,165.210
0.023,0.879,1.051,1.051,221.169,161.731,165.230
0.025,0.895,1.051,1.051,221.167,161.729,165.246
0.026,0.906,1.052,1.052,221.169,161.725,165.256
0.027,0.914,1.054,1.054,221.174,161.720,165.257
0.029,0.929,1.055,1.055,221.183,161.713,165.246
0.030,0.958,1.057,1.057,221.195,161.707,165.221
0.032,1.003,1.060,1.060,221.210,161.701,165.179
0.033,1.068,1.063,1.063,221.229,161.697,165.117
0.035,1.155,1.068,1.068,221.250,161.694,165.033
0.036,1.259,1.074,1.074,221.275,161.694,164.932
0.038,1.377,1.084,1.084,221.302,161.696,164.817
0.039,1.506,1.096,1.096,221.332,161.700,164.691
0.040,1.643,1.112,1.112,221.363,161.707,164.558
0.042,1.783,1.132,1.132,221.395,161.716,164.422
0.043,1.924,1.155,1.155,221.428,161.728,164.286
0.045,2.061,1.180,1.180,221.462,161.742,164.153
0.046,2.192,1.205,1.205,221.496,161.759,164.028
0.048,2.314,1.229,1.229,221.529,161.779,163.913
0.049,2.422,1.250,1.250,221.562,161.802,163.813
0.051,2.515,1.268,1.268,221.595,161.828,163.729
0.052,2.595,1.282,1.282,221.625,161.856,163.661
0.053,2.664,1.292,1.292,221.654,161.886,163.606
0.055,2.725,1.299,1.299,221.681,161.918,163.561
0.056,2.781,1.304,1.304,221.706,161.950,163.522
0.058,2.833,1.309,1.309,221.728,161.981,163.488
0.059,2.881,1.315,1.315,221.747,162.012,163.455
0.061,2.929,1.323,1.323,221.762,162.041,163.420
0.062,2.978,1.334,1.334,221.774,162.068,163.381
0.063,3.031,1.348,1.348,221.781,162.091,163.335
0.065,3.091,1.365,1.365,221.784,162.112,163.278
0.066,3.163,1.387,1.387,221.782,162.128,163.208
0.068,3.246,1.413,1.413,221.776,162.139,163.126
0.069,3.339,1.444,1.444,221.765,162.147,163.034
0.071,3.439,1.480,1.480,221.750,162.150,162.935
0.072,3.544,1.521,1.521,221.733,162.148,162.832
0.074,3.651,1.565,1.565,221.712,162.143,162.727
0.075,3.757,1.611,1.611,221.690,162.134,162.624
0.076,3.859,1.656,1.656,221.666,162.120,162.525
0.078,3.956,1.698,1.698,221.640,162.103,162.433
0.079,4.045,1.736,1.736,221.614,162.082,162.351
0.081,4.123,1.766,1.766,221.589,162.058,162.282
0.082,4.188,1.789,1.789,221.563,162.030,162.228
0.084,4.242,1.804,1.804,221.538,161.999,162.191
0.085,4.287,1.813,1.813,221.515,161.967,162.169
0.087,4.327,1.819,1.819,221.494,161.935,162.160
0.088,4.362,1.822,1.822,221.475,161.906,162.160
0.089,4.393,1.824,1.824,221.459,161.880,162.168
0.091,4.421,1.827,1.827,221.446,161.860,162.180
0.092,4.442,1.832,1.832,221.437,161.847,162.195
0.094,4.458,1.838,1.838,221.432,161.843,162.210
0.095,4.472,1.845,1.845,221.431,161.850,162.222
0.097,4.493,1.852,1.852,221.436,161.869,162.229
0.098,4.528,1.858,1.858,221.446,161.903,162.228
0.100,4.582,1.861,1.861,221.463,161.952,162.218
0.101,4.653,1.862,1.862,221.484,162.018,162.198
0.102,4.744,1.860,1.860,221.510,162.100,162.170
0.104,4.852,1.855,1.855,221.538,162.199,162.135
0.105,4.978,1.850,1.850,221.568,162.314,162.095
0.107,5.121,1.847,1.847,221.599,162.446,162.051
0.108,5.280,1.846,1.846,221.630,162.595,162.005
0.110,5.455,1.850,1.850,221.659,162.761,161.957
0.111,5.646,1.861,1.861,221.685,162.945,161.910
0.113,5.853,1.879,1.879,221.707,163.145,161.864
0.114,6.076,1.907,1.907,221.724,163.363,161.821
0.115,6.315,1.946,1.946,221.735,163.599,161.783
0.117,6.567,1.998,1.998,221.740,163.849,161.750
0.118,6.830,2.064,2.064,221.741,164.110,161.722
0.120,7.096,2.145,2.145,221.739,164.376,161.701
0.121,7.363,2.243,2.243,221.735,164.642,161.687
0.123,7.624,2.358,2.358,221.732,164.903,161.680
0.124,7.876,2.483,2.483,221.730,165.155,161.681
0.126,8.113,2.611,2.611,221.732,165.392,161.690
0.127,8.331,2.732,2.732,221.739,165.609,161.707
0.128,8.526,2.840,2.840,221.752,165.802,161.734
0.130,8.694,2.926,2.926,221.772,165.965,161.771
0.131,8.834,2.981,2.981,221.803,166.093,161.818
0.133,8.949,3.002,3.002,221.843,166.184,161.875
0.134,9.050,2.991,2.991,221.893,166.241,161.942
0.136,9.147,2.957,2.957,221.948,166.268,162.017
0.137,9.248,2.907,2.907,222.009,166.271,162.098
0.139,9.357,2.849,2.849,222.072,166.254,162.186
0.140,9.474,2.789,2.789,222.135,166.222,162.278
0.141,9.595,2.736,2.736,222.197,166.179,162.373
0.143,9.719,2.695,2.695,222.256,166.129,162.470
0.144,9.842,2.666,2.666,222.308,166.078,162.569
0.146,9.960,2.647,2.647,222.354,166.031,162.667
0.147,10.071,2.635,2.635,222.390,165.991,162.764
0.149,10.172,2.629,2.629,222.414,165.963,162.858
0.150,10.265,2.626,2.626,222.428,165.947,162.948
0.152,10.351,2.625,2.625,222.433,165.942,163.034
0.153,10.432,2.624,2.624,222.430,165.947,163.115
0.154,10.508,2.623,2.623,222.422,165.958,163.190
0.156,10.580,2.621,2.621,222.410,165.976,163.258
0.157,10.645,2.620,2.620,222.397,165.998,163.318
0.159,10.704,2.619,2.619,222.383,166.023,163.370
0.160,10.755,2.619,2.619,222.371,166.048,163.412
0.162,10.797,2.619,2.619,222.362,166.074,163.444
0.163,10.828,2.620,2.620,222.358,166.097,163.465
0.165,10.850,2.622,2.622,222.360,166.116,163.474
0.166,10.868,2.623,2.623,222.370,166.131,163.473
0.167,10.886,2.622,2.622,222.385,166.141,163.466
0.169,10.905,2.619,2.619,222.401,166.146,163.458
0.170,10.923,2.612,2.612,222.418,166.146,163.454
0.172,10.939,2.602,2.602,222.432,166.140,163.459
0.173,10.962,2.587,2.587,222.442,166.129,163.477
0.175,11.002,2.566,2.566,222.445,166.113,163.513
0.176,11.066,2.538,2.538,222.438,166.090,163.573
0.177,11.160,2.505,2.505,222.420,166.062,163.660
0.179,11.288,2.463,2.463,222.387,166.028,163.780
0.180,11.458,2.413,2.413,222.339,165.988,163.938
0.182,11.672,2.355,2.355,222.272,165.942,164.135
0.183,11.923,2.288,2.288,222.190,165.890,164.367
0.185,12.204,2.217,2.217,222.096,165.835,164.626
0.186,12.507,2.147,2.147,221.991,165.778,164.905
0.188,12.824,2.083,2.083,221.879,165.719,165.195
0.189,13.146,2.031,2.031,221.762,165.660,165.490
0.190,13.466,1.996,1.996,221.644,165.602,165.781
0.192,13.776,1.983,1.983,221.526,165.547,166.062
0.193,14.067,1.996,1.996,221.413,165.496,166.326
0.195,14.331,2.029,2.029,221.307,165.449,166.563
0.196,14.562,2.077,2.077,221.210,165.408,166.768
0.198,14.750,2.132,2.132,221.125,165.375,166.933
0.199,14.897,2.188,2.188,221.052,165.349,167.058
0.201,15.008,2.239,2.239,220.992,165.330,167.149
0.202,15.089,2.277,2.277,220.941,165.317,167.211
0.203,15.144,2.298,2.298,220.901,165.309,167.248
0.205,15.180,2.303,2.303,220.869,165.306,167.265
0.206,15.205,2.297,2.297,220.845,165.306,167.268
0.208,15.224,2.283,2.283,220.827,165.311,167.262
0.209,15.242,2.265,2.265,220.816,165.318,167.251
0.211,15.257,2.246,2.246,220.808,165.327,167.240
0.212,15.269,2.231,2.231,220.805,165.338,167.235
0.214,15.282,2.221,2.221,220.804,165.349,167.241
0.215,15.304,2.218,2.218,220.806,165.361,167.260
0.216,15.336,2.219,2.219,220.809,165.373,167.289
0.218,15.377,2.225,2.225,220.814,165.385,167.328
0.219,15.424,2.233,2.233,220.820,165.398,167.373
0.221,15.475,2.243,2.243,220.827,165.410,167.422
0.222,15.528,2.255,2.255,220.835,165.423,167.473
0.224,15.581,2.267,2.267,220.844,165.436,167.523
0.225,15.631,2.278,2.278,220.853,165.448,167.571
0.227,15.677,2.290,2.290,220.863,165.461,167.614
0.228,15.716,2.301,2.301,220.872,165.473,167.649
0.229,15.746,2.311,2.311,220.882,165.486,167.675
0.231,15.767,2.320,2.320,220.891,165.497,167.690
0.232,15.782,2.328,2.328,220.899,165.509,167.696
0.234,15.794,2.335,2.335,220.907,165.518,167.695
0.235,15.805,2.341,2.341,220.912,165.526,167.690
0.237,15.813,2.344,2.344,220.916,165.531,167.685
0.238,15.817,2.346,2.346,220.917,165.533,167.683
0.240,15.820,2.345,2.345,220.916,165.532,167.685
0.241,15.833,2.341,2.341,220.911,165.526,167.695
0.242,15.858,2.334,2.334,220.903,165.515,167.717
0.244,15.898,2.324,2.324,220.891,165.498,167.751
0.245,15.957,2.313,2.313,220.875,165.476,167.803
0.247,16.036,2.301,2.301,220.853,165.446,167.874
0.248,16.136,2.292,2.292,220.827,165.411,167.963
0.250,16.251,2.286,2.286,220.798,165.371,168.067
0.251,16.380,2.286,2.286,220.767,165.326,168.184
0.253,16.518,2.293,2.293,220.734,165.279,168.309
0.254,16.660,2.308,2.308,220.700,165.230,168.439
0.255,16.805,2.329,2.329,220.667,165.181,168.571
0.257,16.948,2.355,2.355,220.635,165.133,168.701
0.258,17.085,2.383,2.383,220.606,165.087,168.827
0.260,17.212,2.411,2.411,220.580,165.044,168.944
0.261,17.327,2.437,2.437,220.559,165.005,169.050
0.263,17.425,2.457,2.457,220.543,164.971,169.140
0.264,17.505,2.472,2.472,220.533,164.944,169.214
0.266,17.567,2.480,2.480,220.528,164.922,169.273
0.267,17.615,2.484,2.484,220.528,164.906,169.317
0.268,17.649,2.484,2.484,220.533,164.894,169.350
0.270,17.673,2.482,2.482,220.541,164.887,169.371
0.271,17.690,2.478,2.478,220.553,164.884,169.383
0.273,17.706,2.474,2.474,220.567,164.885,169.388
0.274,17.723,2.471,2.471,220.584,164.889,169.388
0.276,17.743,2.469,2.469,220.602,164.895,169.382
0.277,17.765,2.468,2.468,220.621,164.904,169.375
0.278,17.789,2.468,2.468,220.641,164.914,169.366
0.280,17.814,2.469,2.469,220.661,164.926,169.358
0.281,17.837,2.472,2.472,220.680,164.938,169.352
0.283,17.859,2.476,2.476,220.698,164.950,169.348
0.284,17.878,2.482,2.482,220.714,164.960,169.349
0.286,17.895,2.488,2.488,220.728,164.968,169.354
0.287,17.910,2.492,2.492,220.738,164.973,169.365
0.289,17.930,2.494,2.494,220.744,164.974,169.383
0.290,17.956,2.491,2.491,220.746,164.970,169.409
0.291,17.992,2.482,2.482,220.743,164.960,169.444
0.293,18.041,2.466,2.466,220.733,164.944,169.489
0.294,18.104,2.441,2.441,220.717,164.919,169.545
0.296,18.183,2.409,2.409,220.694,164.887,169.613
0.297,18.278,2.373,2.373,220.664,164.846,169.693
0.299,18.388,2.332,2.332,220.627,164.799,169.785
0.300,18.510,2.291,2.291,220.584,164.746,169.887
0.302,18.644,2.250,2.250,220.534,164.691,169.998
0.303,18.787,2.212,2.212,220.480,164.635,170.119
0.304,18.939,2.178,2.178,220.421,164.579,170.247
0.306,19.098,2.148,2.148,220.357,164.524,170.382
0.307,19.263,2.121,2.122,220.290,164.474,170.523
0.309,19.432,2.099,2.099,220.219,164.428,170.669
0.310,19.604,2.080,2.081,220.145,164.390,170.820
0.312,19.779,2.065,2.065,220.069,164.360,170.975
0.313,19.955,2.053,2.053,219.991,164.340,171.132
0.315,20.132,2.044,2.044,219.913,164.329,171.290
0.316,20.309,2.038,2.037,219.836,164.325,171.449
0.317,20.483,2.032,2.032,219.761,164.328,171.607
0.319,20.655,2.027,2.027,219.689,164.335,171.762
0.320,20.821,2.022,2.021,219.622,164.346,171.914
0.322,20.982,2.015,2.015,219.561,164.360,172.062
0.323,21.134,2.007,2.007,219.507,164.375,172.203
0.325,21.276,1.995,1.996,219.462,164.390,172.338
0.326,21.408,1.983,1.984,219.427,164.404,172.464
0.328,21.528,1.970,1.971,219.403,164.416,172.581
0.329,21.635,1.958,1.959,219.391,164.424,172.687
0.330,21.731,1.948,1.950,219.391,164.428,172.783
0.332,21.820,1.943,1.944,219.399,164.427,172.871
0.333,21.902,1.943,1.943,219.414,164.421,172.952
0.335,21.980,1.949,1.947,219.434,164.411,173.027
0.336,22.056,1.959,1.956,219.456,164.394,173.097
0.338,22.131,1.972,1.967,219.479,164.372,173.165
0.339,22.206,1.985,1.979,219.500,164.343,173.231
0.341,22.282,1.997,1.991,219.517,164.308,173.296
0.342,22.362,2.004,2.000,219.527,164.265,173.363
0.343,22.447,2.005,2.005,219.529,164.216,173.433
0.345,22.541,1.998,2.005,219.521,164.158,173.506
0.346,22.644,1.985,2.000,219.502,164.093,173.583
0.348,22.756,1.968,1.991,219.473,164.022,173.664
0.349,22.876,1.947,1.979,219.434,163.944,173.748
0.351,23.004,1.926,1.965,219.388,163.862,173.834
0.352,23.137,1.906,1.950,219.335,163.776,173.922
0.354,23.276,1.888,1.934,219.276,163.688,174.010
0.355,23.417,1.875,1.919,219.212,163.597,174.098
0.356,23.560,1.867,1.906,219.145,163.506,174.185
0.358,23.704,1.863,1.894,219.075,163.414,174.271
0.359,23.846,1.862,1.886,219.003,163.323,174.354
0.361,23.986,1.866,1.881,218.931,163.234,174.434
0.362,24.122,1.874,1.880,218.860,163.148,174.511
0.364,24.254,1.885,1.885,218.790,163.064,174.585
0.365,24.383,1.899,1.895,218.720,162.984,174.658
0.367,24.510,1.916,1.909,218.650,162.907,174.731
0.368,24.635,1.934,1.927,218.581,162.834,174.805
0.369,24.759,1.953,1.947,218.512,162.765,174.882
0.371,24.882,1.972,1.968,218.444,162.701,174.962
0.372,25.006,1.990,1.988,218.376,162.641,175.047
0.374,25.132,2.007,2.007,218.309,162.586,175.138
0.375,25.261,2.021,2.023,218.241,162.536,175.236
0.377,25.395,2.034,2.037,218.174,162.491,175.343
0.378,25.534,2.046,2.050,218.107,162.452,175.459
0.380,25.680,2.058,2.062,218.042,162.420,175.584
0.381,25.830,2.072,2.076,217.979,162.397,175.719
0.382,25.985,2.089,2.091,217.922,162.383,175.862
0.384,26.144,2.108,2.108,217.872,162.380,176.013
0.385,26.307,2.132,2.129,217.830,162.391,176.171
0.387,26.476,2.159,2.153,217.798,162.415,176.335
0.388,26.652,2.187,2.179,217.779,162.455,176.505
0.390,26.837,2.216,2.207,217.773,162.513,176.681
0.391,27.033,2.245,2.236,217.783,162.589,176.861
0.392,27.243,2.271,2.265,217.811,162.686,177.045
0.394,27.470,2.295,2.295,217.858,162.804,177.233
0.395,27.714,2.314,2.323,217.923,162.943,177.423
0.397,27.973,2.329,2.351,218.003,163.100,177.613
0.398,28.242,2.341,2.377,218.092,163.270,177.801
0.400,28.517,2.352,2.400,218.187,163.450,177.985
0.401,28.791,2.361,2.420,218.283,163.636,178.162
0.403,29.059,2.370,2.437,218.374,163.824,178.331
0.404,29.317,2.380,2.450,218.458,164.010,178.489
0.405,29.559,2.390,2.457,218.528,164.191,178.635
0.407,29.780,2.401,2.460,218.581,164.361,178.765
0.408,29.976,2.410,2.458,218.612,164.518,178.878
0.410,30.145,2.414,2.450,218.616,164.658,178.971
0.411,30.287,2.414,2.436,218.590,164.778,179.043
0.413,30.411,2.407,2.417,218.538,164.878,179.096
0.414,30.529,2.391,2.391,218.462,164.961,179.130
0.416,30.646,2.365,2.359,218.367,165.028,179.148
0.417,30.769,2.332,2.322,218.258,165.082,179.152
0.418,30.896,2.293,2.284,218.138,165.125,179.143
0.420,31.029,2.252,2.244,218.011,165.159,179.122
0.421,31.164,2.211,2.206,217.881,165.185,179.093
0.423,31.299,2.174,2.171,217.754,165.205,179.056
0.424,31.430,2.141,2.141,217.631,165.223,179.013
0.426,31.552,2.116,2.118,217.519,165.239,178.967
0.427,31.664,2.097,2.099,217.420,165.255,178.918
0.429,31.765,2.080,2.082,217.334,165.273,178.868
0.430,31.860,2.062,2.065,217.255,165.291,178.819
0.431,31.952,2.042,2.043,217.179,165.311,178.770
0.433,32.044,2.016,2.016,217.101,165.330,178.724
0.434,32.141,1.980,1.980,217.017,165.350,178.682
0.436,32.246,1.935,1.934,216.921,165.369,178.644
0.437,32.364,1.882,1.881,216.809,165.388,178.611
0.439,32.501,1.826,1.826,216.676,165.406,178.585
0.440,32.661,1.772,1.772,216.518,165.423,178.566
0.442,32.851,1.724,1.724,216.329,165.439,178.556
0.443,33.075,1.686,1.686,216.105,165.453,178.556
0.444,33.336,1.663,1.663,215.845,165.465,178.565
0.446,33.625,1.657,1.657,215.556,165.476,178.583
0.447,33.936,1.667,1.668,215.246,165.484,178.608
0.449,34.261,1.690,1.690,214.924,165.491,178.639
0.450,34.591,1.722,1.722,214.595,165.496,178.674
0.452,34.919,1.760,1.760,214.270,165.499,178.711
0.453,35.236,1.801,1.801,213.954,165.500,178.750
0.455,35.536,1.841,1.841,213.657,165.499,178.789
0.456,35.810,1.878,1.878,213.386,165.496,178.826
0.457,36.049,1.912,1.912,213.149,165.492,178.860
0.459,36.247,1.946,1.946,212.954,165.485,178.890
0.460,36.396,1.979,1.979,212.806,165.477,178.913
0.462,36.502,2.015,2.015,212.703,165.467,178.933
0.463,36.571,2.053,2.053,212.638,165.455,178.951
0.465,36.612,2.096,2.096,212.604,165.442,178.970
0.466,36.639,2.144,2.144,212.594,165.428,178.992
0.468,36.671,2.194,2.194,212.602,165.414,179.019
0.469,36.713,2.240,2.240,212.621,165.398,179.053
0.470,36.766,2.281,2.281,212.645,165.383,179.098
0.472,36.829,2.310,2.310,212.667,165.367,179.154
0.473,36.903,2.325,2.325,212.681,165.351,179.226
0.475,36.993,2.320,2.320,212.679,165.336,179.314
0.476,37.104,2.295,2.295,212.655,165.321,179.421
0.478,37.238,2.253,2.253,212.609,165.308,179.546
0.479,37.391,2.201,2.201,212.543,165.300,179.685
0.481,37.559,2.148,2.148,212.462,165.298,179.832
0.482,37.737,2.099,2.099,212.370,165.305,179.984
0.483,37.920,2.062,2.062,212.269,165.323,180.135
0.485,38.104,2.044,2.044,212.163,165.355,180.282
0.486,38.284,2.049,2.049,212.057,165.403,180.419
0.488,38.458,2.075,2.075,211.954,165.470,180.543
0.489,38.626,2.115,2.115,211.858,165.557,180.649
0.491,38.788,2.165,2.165,211.773,165.667,180.732
0.492,38.951,2.219,2.219,211.701,165.803,180.788
0.494,39.124,2.272,2.272,211.646,165.965,180.815
0.495,39.312,2.318,2.318,211.606,166.148,180.815
0.496,39.516,2.353,2.353,211.578,166.349,180.795
0.498,39.734,2.378,2.378,211.561,166.563,180.758
0.499,39.961,2.396,2.396,211.553,166.785,180.710
0.501,40.194,2.409,2.409,211.551,167.012,180.653
0.502,40.427,2.419,2.419,211.553,167.237,180.594
0.504,40.655,2.430,2.430,211.558,167.457,180.535
0.505,40.871,2.443,2.443,211.563,167.667,180.483
0.506,41.071,2.461,2.461,211.566,167.862,180.441
0.508,41.250,2.483,2.483,211.565,168.039,180.415
0.509,41.404,2.510,2.510,211.558,168.192,180.407
0.511,41.536,2.541,2.541,211.544,168.323,180.415
0.512,41.651,2.576,2.576,211.522,168.434,180.438
0.514,41.753,2.616,2.616,211.492,168.527,180.470
0.515,41.848,2.659,2.659,211.451,168.603,180.507
0.517,41.938,2.706,2.706,211.401,168.667,180.547
0.518,42.028,2.752,2.752,211.339,168.719,180.585
0.519,42.119,2.794,2.794,211.265,168.762,180.617
0.521,42.215,2.829,2.829,211.179,168.799,180.639
0.522,42.321,2.852,2.852,211.079,168.831,180.649
0.524,42.439,2.860,2.860,210.965,168.861,180.641
0.525,42.575,2.849,2.849,210.835,168.891,180.613
0.527,42.731,2.816,2.816,210.691,168.923,180.563
0.528,42.903,2.764,2.764,210.537,168.956,180.493
0.530,43.091,2.699,2.699,210.376,168.993,180.406
0.531,43.290,2.624,2.624,210.210,169.034,180.303
0.532,43.497,2.545,2.545,210.044,169.080,180.188
0.534,43.709,2.466,2.466,209.881,169.130,180.061
0.535,43.924,2.390,2.390,209.724,169.187,179.926
0.537,44.138,2.323,2.323,209.577,169.250,179.784
0.538,44.348,2.266,2.266,209.444,169.320,179.638
0.540,44.553,2.218,2.218,209.326,169.399,179.489
0.541,44.751,2.181,2.181,209.229,169.486,179.341
0.543,44.941,2.155,2.155,209.154,169.582,179.195
0.544,45.127,2.140,2.140,209.098,169.686,179.051
0.545,45.308,2.138,2.138,209.060,169.795,178.911
0.547,45.486,2.148,2.148,209.036,169.908,178.776
0.548,45.659,2.166,2.166,209.024,170.022,178.646
0.550,45.827,2.191,2.191,209.020,170.136,178.523
0.551,45.989,2.218,2.218,209.023,170.249,178.407
0.553,46.142,2.245,2.245,209.028,170.357,178.299
0.554,46.285,2.267,2.267,209.034,170.460,178.200
0.556,46.416,2.282,2.282,209.038,170.555,178.110
0.557,46.532,2.287,2.287,209.036,170.641,178.032
0.558,46.633,2.283,2.283,209.027,170.715,177.964
0.560,46.721,2.275,2.275,209.010,170.780,177.907
0.561,46.799,2.264,2.264,208.986,170.836,177.859
0.563,46.870,2.253,2.253,208.958,170.887,177.817
0.564,46.937,2.245,2.245,208.927,170.934,177.781
0.566,47.002,2.243,2.243,208.893,170.979,177.749
0.567,47.066,2.249,2.249,208.859,171.025,177.719
0.569,47.133,2.262,2.262,208.826,171.074,177.690
0.570,47.202,2.280,2.280,208.795,171.129,177.659
0.571,47.278,2.301,2.301,208.768,171.190,177.626
0.573,47.361,2.323,2.323,208.746,171.261,177.587
0.574,47.456,2.345,2.345,208.730,171.344,177.543
0.576,47.564,2.364,2.364,208.721,171.439,177.492
0.577,47.683,2.380,2.380,208.719,171.544,177.437
0.579,47.811,2.393,2.393,208.721,171.658,177.379
0.580,47.945,2.404,2.404,208.728,171.778,177.320
0.582,48.083,2.416,2.416,208.738,171.903,177.262
0.583,48.222,2.430,2.430,208.751,172.030,177.208
0.584,48.360,2.446,2.446,208.766,172.158,177.159
0.586,48.495,2.467,2.467,208.780,172.285,177.117
0.587,48.624,2.494,2.494,208.795,172.409,177.084
0.589,48.745,2.524,2.524,208.808,172.528,177.062
