"T","Distance","Radius","FreeRadius","X","Y","Z"
0.000,0.000,0.896,0.896,221.610,161.173,165.571
0.002,0.101,0.923,0.923,221.564,161.238,165.509
0.003,0.200,0.950,0.950,221.518,161.302,165.448
0.005,0.297,0.976,0.976,221.473,161.364,165.389
0.007,0.389,0.998,0.998,221.430,161.424,165.335
0.008,0.475,1.018,1.018,221.389,161.481,165.285
0.010,0.553,1.034,1.034,221.350,161.534,165.242
0.012,0.623,1.044,1.044,221.313,161.581,165.207
0.013,0.683,1.051,1.051,221.280,161.624,165.181
0.015,0.732,1.055,1.055,221.251,161.659,165.164
0.017,0.770,1.055,1.055,221.225,161.688,165.159
0.018,0.800,1.055,1.055,221.204,161.708,165.167
0.020,0.827,1.054,1.054,221.188,161.722,165.183
0.022,0.852,1.053,1.053,221.177,161.729,165.204
0.023,0.875,1.052,1.052,221.170,161.731,165.226
0.025,0.894,1.052,1.052,221.167,161.730,165.245
0.026,0.907,1.052,1.052,221.169,161.725,165.256
0.028,0.916,1.053,1.053,221.175,161.719,165.256
0.030,0.936,1.054,1.054,221.186,161.711,165.240
0.031,0.975,1.057,1.057,221.201,161.704,165.205
0.033,1.037,1.060,1.060,221.220,161.698,165.146
0.035,1.126,1.065,1.065,221.244,161.695,165.060
0.036,1.239,1.073,1.073,221.271,161.694,164.951
0.038,1.371,1.085,1.085,221.301,161.696,164.822
0.040,1.517,1.100,1.100,221.334,161.701,164.680
0.041,1.672,1.121,1.121,221.369,161.709,164.529
0.043,1.831,1.145,1.145,221.406,161.720,164.375
0.045,1.989,1.172,1.172,221.444,161.734,164.223
0.046,2.140,1.200,1.200,221.482,161.752,164.077
0.048,2.281,1.226,1.226,221.520,161.773,163.943
0.050,2.407,1.249,1.249,221.558,161.798,163.826
0.051,2.513,1.266,1.266,221.594,161.827,163.730
0.053,2.602,1.279,1.279,221.629,161.860,163.655
0.055,2.679,1.288,1.288,221.661,161.894,163.594
0.056,2.746,1.295,1.295,221.691,161.930,163.546
0.058,2.807,1.301,1.301,221.717,161.965,163.505
0.060,2.863,1.309,1.309,221.740,162.000,163.467
0.061,2.917,1.319,1.319,221.759,162.034,163.429
0.063,2.972,1.332,1.332,221.773,162.065,163.386
0.065,3.031,1.350,1.350,221.781,162.092,163.334
0.066,3.100,1.373,1.373,221.784,162.114,163.269
0.068,3.183,1.400,1.400,221.781,162.131,163.187
0.070,3.281,1.433,1.433,221.772,162.143,163.091
0.071,3.390,1.473,1.473,221.758,162.149,162.983
0.073,3.507,1.517,1.517,221.739,162.149,162.868
0.075,3.627,1.565,1.565,221.717,162.144,162.750
0.076,3.747,1.612,1.612,221.692,162.134,162.633
0.078,3.863,1.658,1.658,221.665,162.120,162.521
0.079,3.971,1.699,1.699,221.636,162.100,162.418
0.081,4.069,1.732,1.732,221.607,162.075,162.329
0.083,4.152,1.757,1.757,221.578,162.046,162.257
0.084,4.219,1.774,1.774,221.549,162.013,162.206
0.086,4.273,1.787,1.787,221.522,161.977,162.175
0.088,4.319,1.797,1.797,221.498,161.941,162.161
0.089,4.359,1.806,1.806,221.476,161.907,162.160
0.091,4.395,1.816,1.816,221.458,161.878,162.169
0.093,4.425,1.829,1.829,221.444,161.857,162.183
0.094,4.447,1.844,1.844,221.434,161.844,162.200
0.096,4.463,1.857,1.857,221.431,161.845,162.216
0.098,4.482,1.868,1.868,221.433,161.859,162.227
0.099,4.516,1.875,1.875,221.443,161.892,162.229
0.101,4.571,1.875,1.875,221.460,161.943,162.220
0.103,4.650,1.868,1.868,221.483,162.016,162.198
0.104,4.753,1.855,1.855,221.512,162.109,162.167
0.106,4.878,1.841,1.841,221.545,162.223,162.126
0.108,5.026,1.829,1.829,221.579,162.359,162.080
0.109,5.195,1.821,1.821,221.614,162.516,162.029
0.111,5.384,1.822,1.822,221.648,162.695,161.976
0.113,5.594,1.834,1.834,221.678,162.896,161.922
0.114,5.824,1.859,1.859,221.704,163.118,161.870
0.116,6.074,1.899,1.899,221.724,163.363,161.821
0.118,6.345,1.956,1.956,221.736,163.630,161.778
0.119,6.632,2.031,2.031,221.741,163.915,161.742
0.121,6.930,2.126,2.126,221.740,164.211,161.713
0.123,7.232,2.242,2.242,221.737,164.512,161.693
0.124,7.530,2.372,2.372,221.733,164.810,161.681
0.126,7.818,2.504,2.504,221.730,165.098,161.680
0.127,8.089,2.629,2.629,221.732,165.368,161.688
0.129,8.335,2.736,2.736,221.739,165.614,161.708
0.131,8.553,2.815,2.815,221.754,165.829,161.739
0.132,8.736,2.855,2.855,221.780,166.005,161.783
0.134,8.883,2.860,2.860,221.818,166.135,161.840
0.136,9.003,2.839,2.839,221.869,166.218,161.910
0.137,9.113,2.802,2.802,221.929,166.262,161.991
0.139,9.226,2.759,2.759,221.996,166.272,162.081
0.141,9.347,2.720,2.720,222.067,166.256,162.179
0.142,9.479,2.695,2.695,222.139,166.220,162.283
0.144,9.616,2.685,2.685,222.208,166.170,162.391
0.146,9.756,2.686,2.686,222.273,166.113,162.501
0.147,9.893,2.692,2.692,222.330,166.057,162.612
0.149,10.022,2.700,2.700,222.376,166.007,162.722
0.151,10.140,2.704,2.704,222.408,165.970,162.829
0.152,10.247,2.699,2.699,222.426,165.949,162.933
0.154,10.345,2.685,2.685,222.433,165.942,163.030
0.156,10.437,2.665,2.665,222.430,165.947,163.122
0.157,10.522,2.643,2.643,222.420,165.962,163.205
0.159,10.601,2.621,2.621,222.406,165.983,163.279
0.161,10.672,2.604,2.604,222.390,166.009,163.344
0.162,10.734,2.594,2.594,222.375,166.038,163.396
0.164,10.784,2.592,2.592,222.364,166.067,163.436
0.166,10.822,2.597,2.597,222.358,166.094,163.463
0.167,10.848,2.605,2.605,222.360,166.116,163.474
0.169,10.868,2.615,2.615,222.372,166.133,163.472
0.171,10.889,2.624,2.624,222.388,166.143,163.464
0.172,10.910,2.629,2.629,222.407,166.146,163.456
0.174,10.928,2.629,2.629,222.425,166.144,163.455
0.175,10.949,2.621,2.621,222.439,166.134,163.468
0.177,10.988,2.602,2.602,222.445,166.117,163.502
0.179,11.055,2.571,2.571,222.439,166.093,163.564
0.180,11.158,2.526,2.526,222.419,166.062,163.661
0.182,11.307,2.464,2.464,222.382,166.023,163.800
0.184,11.509,2.386,2.386,222.323,165.976,163.987
0.185,11.765,2.299,2.299,222.242,165.922,164.224
0.187,12.065,2.212,2.212,222.142,165.862,164.500
0.189,12.398,2.133,2.133,222.028,165.798,164.806
0.190,12.752,2.070,2.070,221.903,165.732,165.131
0.192,13.115,2.030,2.030,221.772,165.665,165.463
0.194,13.476,2.021,2.021,221.639,165.600,165.793
0.195,13.824,2.035,2.035,221.507,165.538,166.108
0.197,14.146,2.066,2.066,221.381,165.481,166.399
0.199,14.432,2.107,2.107,221.264,165.431,166.655
0.200,14.669,2.150,2.150,221.161,165.389,166.864
0.202,14.852,2.190,2.190,221.074,165.357,167.023
0.204,14.987,2.218,2.218,221.002,165.333,167.135
0.205,15.082,2.237,2.237,220.944,165.317,167.208
0.207,15.145,2.248,2.248,220.899,165.308,167.249
0.209,15.183,2.252,2.252,220.864,165.305,167.267
0.210,15.209,2.251,2.251,220.839,165.307,167.267
0.212,15.229,2.248,2.248,220.821,165.314,167.257
0.214,15.248,2.244,2.244,220.811,165.323,167.244
0.215,15.263,2.239,2.239,220.806,165.334,167.236
0.217,15.277,2.236,2.236,220.804,165.347,167.239
0.219,15.300,2.233,2.233,220.806,165.360,167.259
0.220,15.337,2.233,2.233,220.809,165.374,167.293
0.222,15.384,2.235,2.235,220.815,165.388,167.337
0.224,15.439,2.241,2.241,220.822,165.402,167.390
0.225,15.498,2.249,2.249,220.831,165.416,167.446
0.227,15.558,2.260,2.260,220.840,165.431,167.504
0.228,15.616,2.273,2.273,220.851,165.445,167.559
0.230,15.668,2.286,2.286,220.861,165.459,167.608
0.232,15.713,2.299,2.299,220.872,165.473,167.649
0.233,15.746,2.312,2.312,220.883,165.487,167.678
0.235,15.769,2.324,2.324,220.893,165.500,167.692
0.237,15.784,2.333,2.333,220.902,165.513,167.696
0.238,15.797,2.341,2.341,220.910,165.523,167.693
0.240,15.808,2.345,2.345,220.915,165.530,167.687
0.242,15.813,2.345,2.345,220.917,165.533,167.683
0.243,15.816,2.341,2.341,220.916,165.532,167.685
0.245,15.830,2.333,2.333,220.911,165.525,167.696
0.247,15.859,2.324,2.324,220.902,165.513,167.721
0.248,15.909,2.314,2.314,220.887,165.492,167.764
0.250,15.983,2.305,2.305,220.866,165.465,167.829
0.252,16.084,2.299,2.299,220.840,165.428,167.919
0.253,16.208,2.298,2.298,220.808,165.385,168.031
0.255,16.349,2.301,2.301,220.773,165.336,168.159
0.257,16.503,2.309,2.309,220.736,165.283,168.299
0.258,16.664,2.321,2.321,220.698,165.228,168.446
0.260,16.828,2.336,2.336,220.661,165.173,168.594
0.262,16.987,2.353,2.353,220.626,165.119,168.741
0.263,17.138,2.372,2.372,220.594,165.067,168.879
0.265,17.276,2.392,2.392,220.568,165.021,169.006
0.267,17.394,2.412,2.412,220.547,164.981,169.115
0.268,17.488,2.432,2.432,220.534,164.948,169.203
0.270,17.561,2.452,2.452,220.528,164.923,169.270
0.272,17.614,2.470,2.470,220.528,164.905,169.320
0.273,17.651,2.487,2.487,220.534,164.892,169.355
0.275,17.676,2.501,2.501,220.545,164.886,169.376
0.276,17.694,2.512,2.512,220.559,164.884,169.387
0.278,17.712,2.519,2.519,220.577,164.887,169.389
0.280,17.733,2.522,2.522,220.597,164.893,169.384
0.281,17.758,2.521,2.521,220.618,164.902,169.376
0.283,17.785,2.514,2.514,220.641,164.914,169.366
0.285,17.812,2.502,2.502,220.663,164.927,169.357
0.286,17.839,2.487,2.487,220.685,164.941,169.351
0.288,17.862,2.472,2.472,220.704,164.954,169.348
0.290,17.883,2.457,2.457,220.721,164.964,169.351
0.291,17.900,2.446,2.446,220.735,164.972,169.360
0.293,17.920,2.440,2.440,220.743,164.974,169.378
0.295,17.948,2.440,2.440,220.746,164.971,169.406
0.296,17.989,2.443,2.443,220.743,164.960,169.444
0.298,18.045,2.446,2.446,220.731,164.941,169.496
0.300,18.120,2.444,2.444,220.712,164.912,169.562
0.301,18.215,2.433,2.433,220.683,164.871,169.643
0.303,18.330,2.409,2.409,220.645,164.822,169.740
0.305,18.462,2.369,2.369,220.599,164.765,169.850
0.306,18.610,2.317,2.317,220.546,164.703,169.973
0.308,18.770,2.258,2.258,220.485,164.640,170.107
0.310,18.941,2.196,2.196,220.418,164.576,170.252
0.311,19.121,2.136,2.136,220.346,164.515,170.405
0.313,19.308,2.084,2.084,220.269,164.459,170.566
0.315,19.500,2.043,2.043,220.188,164.411,170.733
0.316,19.696,2.014,2.014,220.104,164.372,170.905
0.318,19.895,1.995,1.994,220.016,164.346,171.081
0.320,20.094,1.984,1.983,219.928,164.331,171.260
0.321,20.294,1.980,1.979,219.841,164.326,171.439
0.323,20.491,1.981,1.981,219.756,164.329,171.617
0.325,20.684,1.986,1.986,219.675,164.338,171.792
0.326,20.870,1.993,1.994,219.601,164.352,171.962
0.328,21.047,2.000,2.002,219.536,164.368,172.126
0.329,21.214,2.007,2.009,219.480,164.385,172.282
0.331,21.367,2.011,2.012,219.436,164.401,172.428
0.333,21.505,2.011,2.012,219.406,164.414,172.562
0.334,21.628,2.006,2.004,219.391,164.423,172.683
0.336,21.736,1.995,1.992,219.391,164.427,172.792
0.338,21.835,1.982,1.977,219.402,164.424,172.890
0.339,21.926,1.969,1.963,219.421,164.415,172.979
0.341,22.013,1.956,1.952,219.444,164.400,173.061
0.343,22.098,1.948,1.946,219.470,164.377,173.139
0.344,22.182,1.945,1.949,219.494,164.347,173.214
0.346,22.268,1.948,1.960,219.514,164.309,173.288
0.348,22.357,1.954,1.974,219.527,164.263,173.363
0.349,22.453,1.961,1.990,219.529,164.208,173.441
0.351,22.558,1.966,2.002,219.518,164.144,173.525
0.353,22.676,1.968,2.008,219.492,164.071,173.613
0.354,22.804,1.963,2.004,219.455,163.991,173.706
0.356,22.943,1.953,1.990,219.406,163.904,173.802
0.358,23.090,1.939,1.969,219.348,163.810,173.900
0.359,23.244,1.923,1.944,219.283,163.712,173.999
0.361,23.403,1.907,1.919,219.211,163.610,174.099
0.363,23.566,1.894,1.898,219.135,163.505,174.197
0.364,23.731,1.885,1.884,219.055,163.398,174.293
0.366,23.895,1.883,1.878,218.974,163.290,174.387
0.368,24.057,1.886,1.880,218.893,163.182,174.476
0.369,24.216,1.894,1.889,218.812,163.075,174.562
0.371,24.371,1.907,1.904,218.733,162.972,174.646
0.373,24.523,1.925,1.923,218.654,162.873,174.729
0.374,24.670,1.946,1.947,218.575,162.781,174.813
0.376,24.814,1.971,1.973,218.498,162.697,174.901
0.377,24.954,1.998,1.999,218.421,162.625,174.992
0.379,25.092,2.023,2.024,218.344,162.564,175.090
0.381,25.229,2.046,2.047,218.269,162.518,175.196
0.382,25.370,2.064,2.064,218.194,162.488,175.310
0.384,25.516,2.075,2.075,218.120,162.475,175.436
0.386,25.671,2.078,2.078,218.047,162.480,175.573
0.387,25.836,2.075,2.075,217.979,162.499,175.721
0.389,26.009,2.068,2.068,217.917,162.529,175.880
0.391,26.190,2.060,2.059,217.864,162.566,176.050
0.392,26.379,2.051,2.051,217.822,162.608,176.229
0.394,26.574,2.045,2.045,217.794,162.650,176.418
0.396,26.776,2.043,2.043,217.781,162.690,176.615
0.397,26.986,2.046,2.046,217.787,162.725,176.821
0.399,27.203,2.053,2.054,217.813,162.751,177.036
0.401,27.431,2.067,2.067,217.862,162.765,177.258
0.402,27.670,2.087,2.087,217.933,162.765,177.486
0.404,27.916,2.113,2.113,218.022,162.755,177.716
0.406,28.167,2.145,2.145,218.124,162.735,177.944
0.407,28.417,2.179,2.179,218.235,162.709,178.166
0.409,28.661,2.210,2.210,218.350,162.677,178.378
0.411,28.893,2.231,2.231,218.465,162.642,178.577
0.412,29.108,2.239,2.239,218.576,162.606,178.758
0.414,29.300,2.227,2.227,218.676,162.571,178.918
0.416,29.463,2.191,2.191,218.763,162.539,179.052
0.417,29.592,2.138,2.138,218.832,162.512,179.157
0.419,29.683,2.076,2.076,218.880,162.491,179.232
0.421,29.742,2.014,2.014,218.910,162.475,179.280
0.422,29.774,1.961,1.961,218.924,162.462,179.306
0.424,29.786,1.928,1.928,218.924,162.452,179.312
0.425,29.804,1.920,1.920,218.913,162.442,179.304
0.427,29.834,1.937,1.937,218.892,162.432,179.284
0.429,29.874,1.971,1.971,218.864,162.420,179.257
0.430,29.921,2.013,2.013,218.831,162.405,179.227
0.432,29.970,2.057,2.057,218.797,162.387,179.198
0.434,30.019,2.096,2.096,218.762,162.362,179.173
0.435,30.068,2.121,2.121,218.728,162.332,179.156
0.437,30.116,2.133,2.133,218.697,162.297,179.145
0.439,30.164,2.131,2.131,218.669,162.257,179.140
0.440,30.214,2.119,2.119,218.645,162.215,179.140
0.442,30.263,2.099,2.099,218.624,162.170,179.146
0.444,30.312,2.073,2.073,218.609,162.125,179.156
0.445,30.361,2.042,2.042,218.599,162.079,179.170
0.447,30.409,2.009,2.009,218.594,162.034,179.186
0.449,30.457,1.975,1.975,218.597,161.991,179.206
0.450,30.503,1.940,1.940,218.607,161.950,179.227
0.452,30.550,1.906,1.906,218.623,161.913,179.250
0.454,30.599,1.875,1.875,218.645,161.876,179.273
0.455,30.651,1.847,1.847,218.670,161.836,179.296
0.457,30.708,1.822,1.822,218.695,161.790,179.317
0.459,30.770,1.797,1.797,218.719,161.736,179.336
0.460,30.841,1.770,1.770,218.740,161.670,179.351
0.462,30.923,1.738,1.738,218.755,161.590,179.363
0.464,31.021,1.698,1.698,218.762,161.492,179.368
0.465,31.139,1.648,1.648,218.759,161.374,179.368
0.467,31.281,1.590,1.589,218.743,161.233,179.360
0.469,31.450,1.527,1.527,218.715,161.068,179.345
0.470,31.640,1.466,1.466,218.676,160.883,179.323
0.472,31.847,1.413,1.413,218.631,160.683,179.295
0.474,32.064,1.374,1.374,218.581,160.474,179.263
0.475,32.285,1.355,1.355,218.530,160.262,179.226
0.477,32.506,1.357,1.357,218.481,160.050,179.187
0.478,32.719,1.376,1.376,218.438,159.845,179.146
0.480,32.920,1.407,1.407,218.403,159.652,179.104
0.482,33.102,1.443,1.444,218.381,159.477,179.063
0.483,33.261,1.480,1.481,218.373,159.323,179.023
0.485,33.394,1.512,1.512,218.382,159.195,178.985
0.487,33.508,1.534,1.534,218.404,159.089,178.950
0.488,33.609,1.549,1.549,218.435,158.999,178.918
0.490,33.699,1.559,1.558,218.471,158.920,178.892
0.492,33.784,1.564,1.563,218.507,158.846,178.870
0.493,33.865,1.568,1.567,218.539,158.773,178.855
0.495,33.947,1.573,1.573,218.562,158.695,178.846
0.497,34.037,1.579,1.581,218.572,158.606,178.845
0.498,34.141,1.589,1.592,218.565,158.502,178.852
0.500,34.271,1.603,1.607,218.537,158.376,178.868
0.502,34.432,1.622,1.626,218.484,158.226,178.894
0.503,34.624,1.646,1.649,218.410,158.053,178.929
0.505,34.841,1.676,1.676,218.321,157.860,178.973
0.507,35.078,1.713,1.709,218.221,157.651,179.024
0.508,35.330,1.758,1.748,218.117,157.430,179.084
0.510,35.591,1.810,1.796,218.013,157.199,179.150
0.512,35.857,1.870,1.855,217.915,156.963,179.223
0.513,36.123,1.938,1.926,217.828,156.725,179.302
0.515,36.385,2.015,2.013,217.757,156.487,179.387
0.517,36.639,2.101,2.116,217.708,156.255,179.476
0.518,36.883,2.193,2.230,217.684,156.030,179.570
0.520,37.118,2.287,2.349,217.683,155.815,179.666
0.522,37.344,2.381,2.466,217.701,155.612,179.763
0.523,37.560,2.471,2.574,217.733,155.422,179.859
0.525,37.763,2.554,2.665,217.775,155.246,179.951
0.526,37.950,2.627,2.735,217.822,155.086,180.038
0.528,38.120,2.688,2.782,217.870,154.945,180.117
0.530,38.268,2.738,2.812,217.915,154.822,180.188
0.531,38.391,2.779,2.829,217.952,154.721,180.247
0.533,38.486,2.810,2.836,217.976,154.641,180.293
0.535,38.550,2.832,2.837,217.985,154.586,180.324
0.536,38.590,2.845,2.837,217.978,154.551,180.343
0.538,38.616,2.852,2.838,217.961,154.535,180.352
0.540,38.641,2.853,2.838,217.936,154.532,180.355
0.541,38.672,2.850,2.837,217.906,154.539,180.354
0.543,38.706,2.844,2.837,217.876,154.553,180.353
0.545,38.739,2.838,2.836,217.847,154.569,180.355
0.546,38.769,2.833,2.835,217.823,154.586,180.363
0.548,38.794,2.830,2.834,217.808,154.597,180.379
0.550,38.823,2.829,2.833,217.806,154.601,180.408
0.551,38.868,2.831,2.834,217.818,154.594,180.451
0.553,38.934,2.836,2.838,217.844,154.576,180.508
0.555,39.017,2.844,2.845,217.883,154.549,180.576
0.556,39.115,2.856,2.856,217.932,154.515,180.654
0.558,39.225,2.872,2.871,217.990,154.474,180.738
0.560,39.343,2.892,2.890,218.055,154.430,180.826
0.561,39.465,2.914,2.913,218.124,154.384,180.916
0.563,39.590,2.938,2.937,218.197,154.337,181.005
0.565,39.712,2.964,2.964,218.270,154.291,181.092
0.566,39.828,2.991,2.992,218.342,154.248,181.173
0.568,39.936,3.019,3.019,218.410,154.210,181.247
0.570,40.034,3.045,3.045,218.474,154.175,181.313
0.571,40.123,3.067,3.067,218.528,154.141,181.374
0.573,40.202,3.084,3.084,218.572,154.106,181.431
0.575,40.276,3.093,3.093,218.602,154.067,181.485
0.576,40.347,3.092,3.092,218.614,154.022,181.539
0.578,40.423,3.081,3.080,218.608,153.969,181.593
0.579,40.513,3.057,3.057,218.579,153.905,181.650
0.581,40.626,3.020,3.020,218.524,153.828,181.711
0.583,40.766,2.969,2.969,218.442,153.735,181.777
0.584,40.940,2.903,2.903,218.329,153.625,181.850
0.586,41.146,2.822,2.822,218.187,153.499,181.930
0.588,41.379,2.725,2.725,218.019,153.360,182.011
0.589,41.633,2.618,2.618,217.829,153.212,182.092
0.591,41.903,2.505,2.505,217.621,153.059,182.169
0.593,42.184,2.392,2.392,217.397,152.904,182.239
0.594,42.470,2.283,2.283,217.162,152.751,182.299
0.596,42.759,2.185,2.185,216.918,152.604,182.345
0.598,43.044,2.101,2.101,216.670,152.467,182.375
0.599,43.322,2.031,2.031,216.422,152.342,182.386
0.601,43.592,1.977,1.977,216.175,152.233,182.374
0.603,43.852,1.937,1.937,215.934,152.142,182.339
0.604,44.104,1.913,1.913,215.700,152.066,182.287
0.606,44.348,1.904,1.904,215.473,152.005,182.218
0.608,44.584,1.909,1.909,215.257,151.957,182.138
0.609,44.810,1.927,1.927,215.052,151.920,182.049
0.611,45.025,1.955,1.955,214.860,151.893,181.955
0.613,45.228,1.988,1.988,214.683,151.875,181.859
0.614,45.415,2.025,2.025,214.523,151.865,181.764
0.616,45.584,2.061,2.061,214.380,151.860,181.673
0.618,45.732,2.095,2.095,214.256,151.859,181.591
0.619,45.859,2.125,2.125,214.153,151.863,181.518
0.621,45.967,2.152,2.152,214.067,151.868,181.453
0.623,46.056,2.175,2.175,213.998,151.876,181.397
0.624,46.129,2.194,2.194,213.944,151.885,181.348
0.626,46.188,2.210,2.210,213.904,151.895,181.307
0.627,46.233,2.222,2.222,213.876,151.904,181.272
0.629,46.268,2.230,2.230,213.860,151.913,181.243
0.631,46.293,2.236,2.236,213.853,151.920,181.219
0.632,46.312,2.241,2.241,213.854,151.925,181.201
0.634,46.329,2.246,2.246,213.862,151.927,181.186
0.636,46.345,2.251,2.251,213.874,151.926,181.176
0.637,46.361,2.257,2.257,213.888,151.923,181.168
0.639,46.376,2.264,2.264,213.901,151.918,181.161
0.641,46.388,2.272,2.272,213.909,151.913,181.155
0.642,46.396,2.281,2.281,213.909,151.908,181.149
0.644,46.410,2.290,2.290,213.900,151.903,181.140
0.646,46.435,2.298,2.298,213.877,151.901,181.129
0.647,46.477,2.305,2.305,213.838,151.901,181.114
0.649,46.539,2.311,2.311,213.779,151.904,181.094
0.651,46.624,2.318,2.318,213.698,151.911,181.068
0.652,46.732,2.327,2.327,213.596,151.922,181.037
0.654,46.858,2.338,2.338,213.476,151.936,181.000
0.656,46.998,2.352,2.352,213.344,151.953,180.960
0.657,47.145,2.371,2.371,213.204,151.971,180.917
0.659,47.296,2.395,2.395,213.061,151.989,180.872
0.661,47.444,2.422,2.422,212.920,152.007,180.828
0.662,47.586,2.450,2.450,212.787,152.024,180.784
0.664,47.715,2.479,2.479,212.665,152.039,180.743
0.666,47.828,2.506,2.506,212.560,152.050,180.704
0.667,47.918,2.530,2.530,212.476,152.058,180.670
0.669,47.986,2.550,2.550,212.415,152.061,180.642
0.671,48.034,2.567,2.567,212.373,152.062,180.619
0.672,48.067,2.579,2.579,212.345,152.061,180.601
0.674,48.088,2.587,2.587,212.327,152.060,180.590
0.675,48.103,2.591,2.591,212.314,152.061,180.585
