"T","Distance","Radius","FreeRadius","X","Y","Z"
0.000,0.000,0.896,0.896,221.610,161.173,165.571
0.001,0.103,0.929,0.929,221.563,161.239,165.507
0.003,0.205,0.961,0.961,221.516,161.305,165.445
0.004,0.303,0.991,0.991,221.470,161.368,165.385
0.005,0.397,1.019,1.019,221.426,161.429,165.330
0.006,0.484,1.044,1.044,221.384,161.487,165.280
0.008,0.563,1.065,1.065,221.344,161.540,165.237
0.009,0.633,1.081,1.081,221.308,161.589,165.202
0.010,0.693,1.092,1.092,221.274,161.631,165.177
0.011,0.741,1.096,1.096,221.245,161.666,165.162
0.013,0.778,1.095,1.095,221.220,161.693,165.160
0.014,0.807,1.090,1.090,221.200,161.712,165.170
0.015,0.834,1.082,1.082,221.185,161.724,165.188
0.016,0.859,1.072,1.072,221.174,161.730,165.211
0.018,0.882,1.062,1.062,221.168,161.731,165.232
0.019,0.899,1.053,1.053,221.167,161.728,165.250
0.020,0.910,1.047,1.047,221.171,161.723,165.257
0.021,0.922,1.043,1.043,221.179,161.716,165.252
0.023,0.950,1.043,1.043,221.192,161.708,165.228
0.024,0.999,1.046,1.046,221.209,161.701,165.182
0.025,1.075,1.053,1.053,221.230,161.696,165.110
0.026,1.178,1.062,1.062,221.256,161.694,165.010
0.028,1.304,1.075,1.075,221.286,161.695,164.887
0.029,1.447,1.090,1.090,221.318,161.698,164.748
0.030,1.602,1.108,1.108,221.353,161.705,164.597
0.031,1.764,1.129,1.129,221.390,161.715,164.441
0.033,1.926,1.151,1.151,221.429,161.728,164.283
0.034,2.084,1.175,1.175,221.468,161.745,164.131
0.035,2.233,1.199,1.199,221.507,161.765,163.989
0.036,2.367,1.224,1.224,221.545,161.790,163.862
0.038,2.482,1.247,1.247,221.583,161.818,163.757
0.039,2.579,1.269,1.269,221.619,161.850,163.674
0.040,2.660,1.288,1.288,221.653,161.885,163.609
0.041,2.731,1.305,1.305,221.684,161.921,163.557
0.043,2.794,1.319,1.319,221.712,161.958,163.513
0.044,2.852,1.332,1.332,221.736,161.994,163.474
0.045,2.908,1.346,1.346,221.756,162.028,163.436
0.046,2.964,1.361,1.361,221.771,162.060,163.393
0.048,3.023,1.378,1.378,221.781,162.089,163.341
0.049,3.092,1.399,1.399,221.784,162.112,163.276
0.050,3.176,1.426,1.426,221.781,162.130,163.194
0.051,3.276,1.458,1.458,221.773,162.142,163.096
0.053,3.387,1.495,1.495,221.758,162.149,162.986
0.054,3.506,1.537,1.537,221.739,162.149,162.869
0.055,3.629,1.580,1.580,221.717,162.144,162.748
0.056,3.752,1.624,1.624,221.691,162.134,162.628
0.058,3.870,1.668,1.668,221.663,162.118,162.514
0.059,3.980,1.709,1.709,221.633,162.098,162.410
0.060,4.078,1.746,1.746,221.604,162.073,162.320
0.061,4.161,1.778,1.778,221.574,162.042,162.249
0.063,4.228,1.804,1.804,221.545,162.008,162.200
0.064,4.282,1.825,1.825,221.518,161.971,162.171
0.065,4.328,1.841,1.841,221.493,161.934,162.160
0.066,4.368,1.851,1.851,221.472,161.900,162.161
0.068,4.403,1.856,1.856,221.454,161.872,162.172
0.069,4.431,1.857,1.857,221.441,161.852,162.188
0.070,4.452,1.853,1.853,221.433,161.843,162.205
0.072,4.468,1.845,1.845,221.431,161.848,162.220
0.073,4.491,1.834,1.834,221.436,161.868,162.229
0.074,4.533,1.822,1.822,221.448,161.908,162.227
0.075,4.598,1.810,1.810,221.468,161.969,162.213
0.077,4.689,1.800,1.800,221.495,162.051,162.187
0.078,4.804,1.795,1.795,221.526,162.156,162.150
0.079,4.942,1.796,1.796,221.560,162.282,162.106
0.080,5.104,1.804,1.804,221.596,162.431,162.056
0.082,5.287,1.822,1.822,221.631,162.603,162.002
0.083,5.491,1.850,1.850,221.664,162.797,161.947
0.084,5.717,1.886,1.886,221.693,163.015,161.893
0.085,5.964,1.932,1.932,221.716,163.255,161.842
0.087,6.232,1.986,1.986,221.732,163.518,161.795
0.088,6.520,2.046,2.046,221.740,163.804,161.755
0.089,6.822,2.114,2.114,221.741,164.104,161.723
0.090,7.130,2.187,2.187,221.738,164.411,161.699
0.092,7.437,2.265,2.265,221.734,164.717,161.684
0.093,7.735,2.347,2.347,221.731,165.015,161.679
0.094,8.018,2.431,2.431,221.731,165.298,161.685
0.095,8.277,2.513,2.513,221.736,165.557,161.702
0.097,8.507,2.591,2.591,221.750,165.784,161.731
0.098,8.702,2.663,2.663,221.774,165.973,161.774
0.099,8.859,2.726,2.726,221.811,166.115,161.829
0.100,8.985,2.778,2.778,221.861,166.208,161.899
0.102,9.098,2.816,2.816,221.921,166.258,161.980
0.103,9.213,2.841,2.841,221.989,166.273,162.071
0.104,9.337,2.853,2.853,222.061,166.258,162.171
0.105,9.470,2.854,2.854,222.134,166.222,162.276
0.107,9.611,2.846,2.846,222.206,166.172,162.386
0.108,9.754,2.831,2.831,222.272,166.114,162.499
0.109,9.894,2.811,2.811,222.330,166.056,162.613
0.110,10.026,2.787,2.787,222.377,166.005,162.726
0.112,10.146,2.761,2.761,222.409,165.969,162.835
0.113,10.255,2.734,2.734,222.427,165.948,162.941
0.114,10.355,2.707,2.707,222.433,165.942,163.040
0.115,10.447,2.682,2.682,222.429,165.949,163.132
0.117,10.534,2.659,2.659,222.418,165.964,163.217
0.118,10.613,2.640,2.640,222.403,165.987,163.291
0.119,10.684,2.625,2.625,222.387,166.015,163.355
0.120,10.745,2.616,2.616,222.372,166.044,163.406
0.122,10.794,2.613,2.613,222.362,166.074,163.444
0.123,10.830,2.616,2.616,222.358,166.100,163.467
0.124,10.853,2.623,2.623,222.363,166.121,163.475
0.125,10.874,2.629,2.629,222.376,166.136,163.470
0.127,10.896,2.632,2.632,222.395,166.145,163.461
0.128,10.916,2.628,2.628,222.414,166.146,163.454
0.129,10.935,2.615,2.615,222.431,166.141,163.458
0.130,10.962,2.590,2.590,222.442,166.128,163.479
0.132,11.012,2.549,2.549,222.444,166.108,163.525
0.133,11.095,2.492,2.492,222.432,166.080,163.603
0.134,11.222,2.425,2.425,222.404,166.044,163.721
0.136,11.399,2.352,2.352,222.355,166.001,163.886
0.137,11.634,2.277,2.277,222.283,165.949,164.104
0.138,11.922,2.207,2.207,222.190,165.890,164.369
0.139,12.249,2.147,2.147,222.079,165.826,164.670
0.141,12.603,2.100,2.100,221.956,165.759,164.995
0.142,12.972,2.073,2.073,221.824,165.691,165.333
0.143,13.344,2.066,2.066,221.688,165.624,165.672
0.144,13.706,2.077,2.077,221.552,165.559,166.001
0.146,14.045,2.101,2.101,221.420,165.499,166.309
0.147,14.350,2.133,2.133,221.298,165.445,166.583
0.148,14.608,2.170,2.170,221.188,165.400,166.812
0.149,14.810,2.207,2.207,221.094,165.364,166.987
0.151,14.960,2.239,2.239,221.017,165.338,167.113
0.152,15.065,2.262,2.262,220.955,165.320,167.195
0.153,15.135,2.275,2.275,220.906,165.309,167.244
0.154,15.178,2.279,2.279,220.869,165.305,167.265
0.156,15.205,2.275,2.275,220.842,165.307,167.267
0.157,15.227,2.266,2.266,220.823,165.313,167.258
0.158,15.246,2.255,2.255,220.812,165.322,167.245
0.159,15.262,2.244,2.244,220.806,165.334,167.236
0.161,15.275,2.234,2.234,220.804,165.346,167.239
0.162,15.299,2.228,2.228,220.806,165.360,167.258
0.163,15.337,2.227,2.227,220.809,165.374,167.293
0.164,15.385,2.231,2.231,220.815,165.388,167.339
0.166,15.441,2.238,2.238,220.822,165.403,167.392
0.167,15.501,2.249,2.249,220.831,165.417,167.450
0.168,15.563,2.261,2.261,220.841,165.432,167.509
0.169,15.622,2.275,2.275,220.852,165.447,167.565
0.171,15.675,2.288,2.288,220.863,165.461,167.615
0.172,15.719,2.301,2.301,220.874,165.475,167.655
0.173,15.751,2.313,2.313,220.885,165.490,167.681
0.174,15.772,2.323,2.323,220.895,165.503,167.694
0.176,15.787,2.331,2.331,220.904,165.515,167.696
0.177,15.799,2.337,2.337,220.911,165.525,167.691
0.178,15.809,2.341,2.341,220.916,165.531,167.686
0.179,15.813,2.343,2.343,220.917,165.533,167.683
0.181,15.819,2.342,2.342,220.915,165.531,167.687
0.182,15.838,2.338,2.338,220.909,165.522,167.703
0.183,15.876,2.331,2.331,220.897,165.506,167.735
0.184,15.935,2.323,2.323,220.880,165.482,167.787
0.186,16.022,2.314,2.314,220.856,165.450,167.864
0.187,16.136,2.307,2.307,220.826,165.410,167.966
0.188,16.271,2.301,2.301,220.792,165.362,168.088
0.189,16.423,2.299,2.299,220.755,165.310,168.226
0.191,16.585,2.302,2.302,220.717,165.255,168.373
0.192,16.751,2.310,2.310,220.678,165.198,168.525
0.193,16.917,2.326,2.326,220.641,165.142,168.676
0.194,17.076,2.346,2.346,220.607,165.088,168.822
0.196,17.223,2.370,2.370,220.578,165.039,168.957
0.197,17.352,2.396,2.396,220.554,164.995,169.076
0.198,17.458,2.422,2.422,220.538,164.959,169.174
0.199,17.539,2.446,2.447,220.529,164.930,169.250
0.201,17.600,2.467,2.467,220.528,164.909,169.307
0.202,17.642,2.482,2.482,220.532,164.895,169.347
0.203,17.670,2.491,2.491,220.542,164.887,169.372
0.205,17.690,2.494,2.494,220.555,164.884,169.385
0.206,17.708,2.494,2.494,220.573,164.886,169.389
0.207,17.729,2.491,2.490,220.593,164.892,169.385
0.208,17.754,2.487,2.487,220.615,164.901,169.378
0.210,17.781,2.484,2.484,220.637,164.912,169.368
0.211,17.809,2.484,2.484,220.660,164.925,169.358
0.212,17.836,2.488,2.488,220.683,164.939,169.351
0.213,17.861,2.497,2.497,220.703,164.953,169.348
0.215,17.882,2.510,2.510,220.721,164.964,169.350
0.216,17.900,2.523,2.523,220.734,164.971,169.360
0.217,17.920,2.535,2.535,220.743,164.974,169.378
0.218,17.949,2.542,2.542,220.746,164.971,169.406
0.220,17.991,2.542,2.542,220.742,164.959,169.446
0.221,18.049,2.532,2.532,220.731,164.939,169.500
0.222,18.127,2.511,2.511,220.710,164.908,169.568
0.223,18.227,2.475,2.474,220.680,164.866,169.653
0.225,18.347,2.427,2.426,220.640,164.815,169.754
0.226,18.484,2.370,2.369,220.592,164.756,169.868
0.227,18.637,2.308,2.308,220.535,164.692,169.996
0.228,18.804,2.245,2.244,220.472,164.627,170.136
0.230,18.981,2.183,2.183,220.403,164.562,170.285
0.231,19.167,2.127,2.126,220.328,164.501,170.444
0.232,19.360,2.079,2.079,220.248,164.446,170.610
0.233,19.558,2.043,2.044,220.163,164.399,170.783
0.235,19.759,2.019,2.020,220.076,164.363,170.961
0.236,19.962,2.003,2.005,219.986,164.339,171.142
0.237,20.167,1.995,1.997,219.896,164.328,171.325
0.238,20.370,1.992,1.994,219.807,164.325,171.508
0.240,20.570,1.993,1.995,219.722,164.331,171.689
0.241,20.765,1.995,1.996,219.642,164.342,171.866
0.242,20.952,1.996,1.996,219.570,164.358,172.038
0.243,21.129,1.995,1.993,219.507,164.375,172.202
0.245,21.292,1.991,1.988,219.456,164.393,172.357
0.246,21.442,1.986,1.981,219.418,164.408,172.500
0.247,21.574,1.980,1.973,219.396,164.420,172.630
0.248,21.691,1.973,1.965,219.390,164.427,172.747
0.250,21.796,1.966,1.959,219.396,164.428,172.851
0.251,21.891,1.960,1.955,219.413,164.422,172.945
0.252,21.982,1.956,1.954,219.436,164.410,173.032
0.253,22.069,1.953,1.958,219.462,164.390,173.113
0.255,22.155,1.952,1.965,219.487,164.362,173.190
0.256,22.242,1.952,1.974,219.509,164.325,173.266
0.257,22.333,1.953,1.984,219.525,164.279,173.343
0.258,22.430,1.953,1.993,219.530,164.224,173.422
0.260,22.537,1.952,2.000,219.521,164.158,173.506
0.261,22.656,1.949,2.002,219.498,164.082,173.596
0.262,22.788,1.944,2.000,219.462,163.998,173.690
0.263,22.930,1.935,1.991,219.414,163.907,173.788
0.265,23.082,1.924,1.976,219.356,163.809,173.889
0.266,23.240,1.912,1.957,219.289,163.708,173.990
0.267,23.403,1.900,1.937,219.217,163.604,174.092
0.269,23.568,1.889,1.917,219.139,163.498,174.192
0.270,23.734,1.881,1.899,219.058,163.392,174.291
0.271,23.897,1.877,1.887,218.975,163.288,174.386
0.272,24.057,1.879,1.881,218.892,163.186,174.477
0.274,24.211,1.886,1.883,218.811,163.089,174.563
0.275,24.361,1.900,1.894,218.730,162.995,174.648
0.276,24.507,1.919,1.912,218.649,162.906,174.732
0.277,24.651,1.941,1.935,218.569,162.822,174.818
0.279,24.794,1.966,1.961,218.490,162.744,174.907
0.280,24.937,1.991,1.988,218.412,162.672,175.002
0.281,25.081,2.016,2.015,218.334,162.605,175.103
0.282,25.229,2.040,2.039,218.256,162.546,175.214
0.284,25.382,2.060,2.060,218.178,162.494,175.336
0.285,25.543,2.077,2.077,218.101,162.449,175.470
0.286,25.712,2.092,2.090,218.026,162.414,175.617
0.287,25.887,2.105,2.102,217.956,162.390,175.776
0.289,26.068,2.117,2.113,217.893,162.380,175.945
0.290,26.255,2.129,2.125,217.841,162.386,176.124
0.291,26.449,2.142,2.139,217.802,162.411,176.313
0.292,26.652,2.156,2.155,217.778,162.457,176.509
0.294,26.866,2.173,2.175,217.774,162.525,176.712
0.295,27.096,2.192,2.199,217.790,162.619,176.922
0.296,27.346,2.212,2.225,217.831,162.740,177.136
0.297,27.620,2.233,2.253,217.898,162.891,177.355
0.299,27.914,2.254,2.280,217.985,163.066,177.574
0.300,28.224,2.274,2.305,218.088,163.261,177.792
0.301,28.540,2.291,2.327,218.197,163.469,178.004
0.302,28.856,2.306,2.344,218.307,163.684,178.207
0.304,29.163,2.317,2.356,218.410,163.901,178.398
0.305,29.452,2.325,2.361,218.499,164.113,178.574
0.306,29.716,2.329,2.361,218.568,164.315,178.730
0.307,29.949,2.331,2.357,218.609,164.500,178.865
0.309,30.144,2.329,2.350,218.616,164.662,178.973
0.310,30.306,2.326,2.340,218.583,164.798,179.054
0.311,30.447,2.322,2.330,218.515,164.908,179.109
0.312,30.582,2.316,2.319,218.418,164.997,179.141
0.314,30.720,2.310,2.308,218.298,165.066,179.152
0.315,30.866,2.303,2.299,218.162,165.119,179.145
0.316,31.019,2.294,2.289,218.017,165.158,179.123
0.317,31.175,2.282,2.276,217.867,165.188,179.088
0.319,31.330,2.266,2.261,217.721,165.211,179.044
0.320,31.478,2.244,2.241,217.583,165.230,178.994
0.321,31.613,2.217,2.215,217.460,165.248,178.939
0.322,31.734,2.182,2.182,217.356,165.267,178.882
0.324,31.844,2.140,2.140,217.263,165.287,178.825
0.325,31.950,2.089,2.090,217.175,165.309,178.770
0.326,32.057,2.034,2.035,217.084,165.330,178.718
0.327,32.170,1.977,1.978,216.984,165.353,178.671
0.329,32.297,1.921,1.922,216.866,165.375,178.629
0.330,32.445,1.870,1.871,216.723,165.396,178.596
0.331,32.623,1.827,1.827,216.549,165.417,178.571
0.332,32.838,1.794,1.794,216.335,165.437,178.557
0.334,33.098,1.775,1.775,216.075,165.456,178.556
0.335,33.405,1.771,1.770,215.769,165.473,178.567
0.336,33.748,1.779,1.779,215.427,165.487,178.588
0.338,34.115,1.798,1.798,215.062,165.499,178.618
0.339,34.494,1.825,1.825,214.685,165.509,178.655
0.340,34.872,1.859,1.858,214.308,165.514,178.697
0.341,35.239,1.896,1.896,213.944,165.516,178.742
0.343,35.582,1.934,1.934,213.604,165.513,178.787
0.344,35.890,1.972,1.972,213.300,165.506,178.832
0.345,36.149,2.008,2.008,213.044,165.493,178.873
0.346,36.350,2.041,2.041,212.848,165.475,178.910
0.348,36.491,2.071,2.071,212.713,165.452,178.941
0.349,36.583,2.099,2.099,212.629,165.426,178.971
0.350,36.642,2.123,2.123,212.587,165.398,179.001
0.351,36.685,2.144,2.144,212.577,165.372,179.034
0.353,36.731,2.162,2.162,212.590,165.349,179.072
0.354,36.787,2.177,2.177,212.616,165.330,179.118
0.355,36.851,2.188,2.188,212.645,165.319,179.174
0.356,36.924,2.196,2.196,212.668,165.316,179.243
0.358,37.009,2.201,2.201,212.674,165.323,179.327
0.359,37.115,2.204,2.204,212.656,165.344,179.429
0.360,37.246,2.206,2.206,212.611,165.376,179.548
0.361,37.401,2.206,2.206,212.543,165.417,179.681
0.363,37.576,2.205,2.205,212.455,165.465,179.825
0.364,37.767,2.203,2.203,212.353,165.518,179.977
0.365,37.969,2.202,2.202,212.238,165.574,180.133
0.366,38.177,2.201,2.201,212.115,165.629,180.293
0.368,38.387,2.202,2.202,211.988,165.682,180.451
0.369,38.593,2.205,2.205,211.860,165.729,180.606
0.370,38.791,2.212,2.212,211.736,165.770,180.754
0.371,38.976,2.222,2.222,211.617,165.801,180.892
0.373,39.148,2.238,2.238,211.504,165.820,181.020
0.374,39.308,2.259,2.259,211.393,165.826,181.137
0.375,39.460,2.286,2.286,211.284,165.816,181.241
0.376,39.606,2.318,2.318,211.172,165.788,181.331
0.378,39.753,2.356,2.356,211.057,165.741,181.408
0.379,39.906,2.399,2.399,210.934,165.673,181.470
0.380,40.073,2.446,2.446,210.803,165.581,181.515
0.381,40.260,2.497,2.497,210.659,165.463,181.544
0.383,40.474,2.551,2.551,210.502,165.319,181.556
0.384,40.718,2.607,2.607,210.330,165.146,181.550
0.385,40.989,2.666,2.666,210.145,164.950,181.529
0.386,41.279,2.726,2.726,209.952,164.735,181.497
0.388,41.581,2.786,2.786,209.756,164.509,181.458
0.389,41.889,2.846,2.846,209.560,164.276,181.414
0.390,42.194,2.903,2.903,209.369,164.042,181.370
0.391,42.489,2.958,2.958,209.187,163.813,181.330
0.393,42.766,3.008,3.008,209.018,163.596,181.296
0.394,43.018,3.054,3.054,208.868,163.395,181.273
0.395,43.238,3.094,3.094,208.739,163.217,181.264
0.396,43.423,3.129,3.129,208.634,163.065,181.272
0.398,43.576,3.160,3.160,208.553,162.937,181.294
0.399,43.703,3.186,3.186,208.492,162.831,181.329
0.400,43.811,3.209,3.209,208.449,162.744,181.375
0.402,43.904,3.230,3.230,208.421,162.672,181.428
0.403,43.989,3.249,3.249,208.406,162.614,181.489
0.404,44.069,3.267,3.267,208.402,162.567,181.553
0.405,44.146,3.284,3.284,208.405,162.528,181.619
0.407,44.221,3.300,3.300,208.414,162.493,181.685
0.408,44.293,3.315,3.315,208.426,162.461,181.748
0.409,44.362,3.327,3.327,208.439,162.430,181.808
0.410,44.428,3.337,3.337,208.452,162.398,181.865
0.412,44.491,3.343,3.343,208.465,162.368,181.918
0.413,44.551,3.346,3.346,208.476,162.337,181.969
0.414,44.610,3.345,3.345,208.485,162.308,182.019
0.415,44.666,3.338,3.338,208.490,162.278,182.066
0.417,44.720,3.328,3.328,208.492,162.249,182.113
0.418,44.774,3.315,3.315,208.489,162.221,182.159
0.419,44.828,3.300,3.300,208.480,162.193,182.204
0.420,44.884,3.284,3.284,208.465,162.166,182.250
0.422,44.941,3.269,3.269,208.444,162.140,182.297
0.423,45.002,3.255,3.255,208.418,162.114,182.345
0.424,45.065,3.243,3.243,208.389,162.089,182.395
0.425,45.130,3.235,3.235,208.359,162.065,182.447
0.427,45.197,3.230,3.230,208.329,162.042,182.503
0.428,45.267,3.227,3.227,208.301,162.021,182.563
0.429,45.339,3.225,3.225,208.276,162.000,182.628
0.430,45.414,3.224,3.224,208.256,161.982,182.697
0.432,45.493,3.222,3.222,208.242,161.965,182.773
0.433,45.576,3.218,3.218,208.236,161.949,182.855
0.434,45.665,3.213,3.213,208.238,161.935,182.942
0.435,45.756,3.205,3.205,208.245,161.922,183.033
0.437,45.849,3.194,3.194,208.256,161.909,183.124
0.438,45.941,3.181,3.181,208.268,161.896,183.214
0.439,46.029,3.167,3.167,208.280,161.881,183.300
0.440,46.112,3.153,3.153,208.290,161.865,183.381
0.442,46.187,3.138,3.138,208.296,161.847,183.454
0.443,46.253,3.125,3.125,208.296,161.826,183.516
0.444,46.309,3.113,3.113,208.287,161.802,183.566
0.445,46.358,3.103,3.103,208.270,161.774,183.601
0.447,46.405,3.096,3.096,208.242,161.742,183.623
0.448,46.456,3.090,3.090,208.208,161.707,183.634
0.449,46.512,3.085,3.085,208.167,161.669,183.636
0.450,46.572,3.081,3.081,208.121,161.629,183.630
0.452,46.637,3.078,3.078,208.073,161.588,183.620
0.453,46.704,3.075,3.075,208.022,161.546,183.607
0.454,46.771,3.071,3.071,207.972,161.503,183.594
0.455,46.837,3.067,3.067,207.923,161.461,183.582
0.457,46.900,3.062,3.062,207.877,161.419,183.575
0.458,46.958,3.057,3.057,207.835,161.378,183.573
0.459,47.013,3.053,3.053,207.797,161.339,183.577
0.460,47.064,3.049,3.049,207.764,161.303,183.589
0.462,47.113,3.046,3.046,207.734,161.269,183.609
0.463,47.161,3.046,3.046,207.708,161.240,183.638
0.464,47.212,3.047,3.047,207.686,161.214,183.676
0.465,47.267,3.051,3.051,207.667,161.194,183.723
0.467,47.328,3.058,3.058,207.652,161.179,183.781
0.468,47.398,3.066,3.066,207.639,161.170,183.849
0.469,47.479,3.076,3.076,207.630,161.168,183.930
0.471,47.572,3.086,3.086,207.623,161.173,184.022
0.472,47.676,3.097,3.097,207.619,161.183,184.126
0.473,47.793,3.107,3.107,207.619,161.195,184.242
0.474,47.921,3.116,3.116,207.623,161.208,184.369
0.476,48.060,3.124,3.124,207.631,161.219,184.508
0.477,48.211,3.131,3.131,207.645,161.227,184.657
0.478,48.373,3.138,3.138,207.663,161.228,184.818
0.479,48.546,3.146,3.146,207.688,161.220,184.990
0.481,48.732,3.157,3.157,207.718,161.203,185.172
0.482,48.931,3.170,3.170,207.756,161.172,185.365
0.483,49.142,3.188,3.188,207.799,161.128,185.567
0.484,49.361,3.211,3.211,207.846,161.073,185.774
0.486,49.584,3.241,3.241,207.896,161.010,185.982
0.487,49.806,3.276,3.276,207.945,160.941,186.188
0.488,50.022,3.315,3.315,207.991,160.870,186.386
0.489,50.227,3.356,3.356,208.033,160.798,186.574
0.491,50.416,3.395,3.395,208.067,160.729,186.746
0.492,50.584,3.432,3.432,208.092,160.666,186.899
0.493,50.726,3.465,3.465,208.105,160.610,187.030
0.494,50.839,3.490,3.490,208.105,160.566,187.133
0.496,50.922,3.506,3.506,208.090,160.532,187.208
0.497,50.984,3.513,3.513,208.064,160.510,187.259
0.498,51.032,3.513,3.513,208.029,160.495,187.288
0.499,51.075,3.506,3.506,207.988,160.488,187.300
0.501,51.121,3.493,3.493,207.942,160.486,187.297
0.502,51.170,3.478,3.478,207.895,160.489,187.282
0.503,51.221,3.460,3.460,207.849,160.494,187.261
0.504,51.271,3.441,3.441,207.807,160.500,187.235
0.506,51.317,3.423,3.423,207.771,160.505,187.208
0.507,51.353,3.406,3.406,207.743,160.508,187.184
0.508,51.381,3.391,3.391,207.724,160.509,187.164
0.509,51.399,3.378,3.378,207.713,160.508,187.149
0.511,51.410,3.367,3.367,207.708,160.505,187.140
