"T","Distance","Radius","FreeRadius","X","Y","Z"
0.000,0.000,0.896,0.896,221.610,161.173,165.571
0.001,0.108,0.929,0.929,221.561,161.242,165.504
0.003,0.214,0.962,0.962,221.512,161.310,165.440
0.004,0.316,0.994,0.994,221.464,161.376,165.378
0.005,0.413,1.022,1.022,221.419,161.440,165.321
0.006,0.502,1.048,1.048,221.375,161.499,165.270
0.008,0.583,1.068,1.068,221.334,161.554,165.227
0.009,0.653,1.084,1.084,221.297,161.602,165.193
0.010,0.711,1.094,1.094,221.263,161.644,165.170
0.012,0.757,1.097,1.097,221.234,161.678,165.160
0.013,0.791,1.095,1.095,221.211,161.703,165.163
0.014,0.820,1.089,1.089,221.192,161.719,165.178
0.015,0.848,1.080,1.080,221.179,161.729,165.200
0.017,0.873,1.070,1.070,221.170,161.732,165.223
0.018,0.893,1.061,1.061,221.167,161.730,165.244
0.019,0.907,1.052,1.052,221.169,161.726,165.256
0.020,0.917,1.047,1.047,221.176,161.719,165.255
0.022,0.941,1.046,1.046,221.188,161.711,165.236
0.023,0.987,1.048,1.048,221.205,161.703,165.193
0.024,1.060,1.053,1.053,221.227,161.697,165.123
0.026,1.164,1.062,1.062,221.253,161.694,165.023
0.027,1.294,1.074,1.074,221.283,161.693,164.897
0.028,1.442,1.089,1.089,221.317,161.696,164.752
0.029,1.604,1.106,1.106,221.354,161.703,164.595
0.031,1.772,1.126,1.126,221.392,161.713,164.431
0.032,1.942,1.148,1.148,221.432,161.727,164.267
0.033,2.106,1.172,1.172,221.473,161.745,164.109
0.035,2.260,1.196,1.196,221.514,161.768,163.963
0.036,2.397,1.220,1.220,221.554,161.796,163.835
0.037,2.512,1.243,1.243,221.594,161.828,163.731
0.038,2.609,1.265,1.265,221.631,161.865,163.650
0.040,2.692,1.286,1.286,221.666,161.904,163.586
0.041,2.764,1.303,1.303,221.698,161.944,163.535
0.042,2.829,1.318,1.318,221.726,161.983,163.491
0.043,2.889,1.332,1.332,221.749,162.021,163.451
0.045,2.946,1.346,1.346,221.767,162.055,163.409
0.046,3.004,1.362,1.362,221.779,162.085,163.360
0.047,3.069,1.381,1.381,221.785,162.108,163.300
0.049,3.148,1.404,1.404,221.783,162.123,163.223
0.050,3.244,1.434,1.434,221.773,162.131,163.128
0.051,3.354,1.471,1.471,221.757,162.131,163.019
0.052,3.474,1.514,1.514,221.736,162.125,162.901
0.054,3.600,1.563,1.563,221.712,162.115,162.777
0.055,3.728,1.614,1.614,221.684,162.101,162.654
0.056,3.852,1.665,1.665,221.655,162.086,162.534
0.058,3.968,1.714,1.714,221.626,162.069,162.423
0.059,4.071,1.759,1.759,221.597,162.052,162.325
0.060,4.157,1.798,1.798,221.571,162.037,162.245
0.061,4.222,1.828,1.828,221.547,162.025,162.186
0.063,4.267,1.849,1.849,221.527,162.015,162.147
0.064,4.296,1.862,1.862,221.509,162.005,162.125
0.065,4.314,1.869,1.869,221.495,161.996,162.119
0.066,4.331,1.870,1.870,221.482,161.987,162.124
0.068,4.352,1.867,1.867,221.472,161.976,162.139
0.069,4.379,1.861,1.861,221.463,161.962,162.161
0.070,4.411,1.852,1.852,221.457,161.945,162.187
0.072,4.446,1.843,1.843,221.451,161.923,162.213
0.073,4.483,1.832,1.832,221.447,161.896,162.239
0.074,4.522,1.820,1.820,221.442,161.864,162.260
0.075,4.565,1.806,1.806,221.437,161.825,162.277
0.077,4.612,1.789,1.789,221.427,161.779,162.285
0.078,4.668,1.769,1.769,221.412,161.726,162.285
0.079,4.733,1.746,1.746,221.391,161.665,162.274
0.081,4.812,1.719,1.719,221.360,161.596,162.250
0.082,4.908,1.687,1.687,221.319,161.518,162.211
0.083,5.024,1.652,1.652,221.265,161.432,162.157
0.084,5.162,1.616,1.616,221.197,161.336,162.084
0.086,5.325,1.579,1.579,221.114,161.230,161.993
0.087,5.507,1.545,1.545,221.017,161.117,161.888
0.088,5.703,1.513,1.513,220.909,160.998,161.775
0.090,5.907,1.487,1.487,220.793,160.875,161.660
0.091,6.114,1.468,1.468,220.671,160.751,161.550
0.092,6.317,1.457,1.457,220.546,160.626,161.448
0.093,6.513,1.451,1.451,220.419,160.504,161.363
0.095,6.696,1.449,1.449,220.295,160.386,161.299
0.096,6.865,1.448,1.448,220.174,160.274,161.262
0.097,7.020,1.443,1.443,220.059,160.170,161.257
0.098,7.167,1.434,1.434,219.952,160.073,161.284
0.100,7.315,1.417,1.417,219.852,159.978,161.336
0.101,7.468,1.389,1.389,219.757,159.881,161.408
0.102,7.628,1.349,1.349,219.669,159.778,161.493
0.104,7.795,1.300,1.300,219.586,159.665,161.584
0.105,7.970,1.248,1.248,219.508,159.538,161.677
0.106,8.155,1.198,1.198,219.435,159.393,161.764
0.107,8.351,1.155,1.155,219.366,159.226,161.840
0.109,8.564,1.124,1.124,219.301,159.032,161.899
0.110,8.796,1.110,1.110,219.239,158.812,161.936
0.111,9.043,1.118,1.118,219.181,158.572,161.955
0.113,9.302,1.151,1.151,219.127,158.319,161.959
0.114,9.563,1.205,1.205,219.078,158.063,161.949
0.115,9.820,1.274,1.274,219.034,157.810,161.930
0.116,10.066,1.352,1.352,218.994,157.569,161.903
0.118,10.292,1.435,1.435,218.961,157.348,161.873
0.119,10.490,1.517,1.517,218.933,157.154,161.842
0.120,10.653,1.592,1.592,218.911,156.996,161.812
0.121,10.772,1.655,1.655,218.896,156.880,161.787
0.123,10.852,1.702,1.702,218.887,156.803,161.767
0.124,10.899,1.735,1.735,218.884,156.759,161.750
0.125,10.924,1.757,1.757,218.888,156.739,161.735
0.127,10.941,1.768,1.768,218.897,156.737,161.721
0.128,10.964,1.772,1.772,218.912,156.746,161.707
0.129,10.992,1.770,1.770,218.933,156.758,161.691
0.130,11.025,1.764,1.764,218.958,156.765,161.671
0.132,11.064,1.756,1.756,218.989,156.761,161.648
0.133,11.115,1.749,1.749,219.025,156.739,161.620
0.134,11.183,1.740,1.740,219.065,156.695,161.586
0.136,11.269,1.731,1.731,219.111,156.632,161.550
0.137,11.368,1.719,1.719,219.161,156.555,161.514
0.138,11.478,1.706,1.706,219.218,156.466,161.482
0.139,11.595,1.691,1.691,219.280,156.370,161.455
0.141,11.717,1.672,1.672,219.348,156.270,161.437
0.142,11.842,1.651,1.651,219.422,156.170,161.431
0.143,11.969,1.626,1.626,219.503,156.073,161.438
0.145,12.096,1.599,1.599,219.590,155.983,161.463
0.146,12.227,1.571,1.571,219.684,155.903,161.507
0.147,12.362,1.542,1.542,219.783,155.833,161.566
0.148,12.499,1.514,1.514,219.882,155.769,161.636
0.150,12.635,1.488,1.488,219.979,155.712,161.712
0.151,12.766,1.464,1.464,220.070,155.659,161.789
0.152,12.888,1.443,1.443,220.153,155.608,161.863
0.153,12.997,1.425,1.425,220.225,155.557,161.929
0.155,13.090,1.410,1.410,220.282,155.506,161.981
0.156,13.165,1.398,1.398,220.321,155.453,162.016
0.157,13.228,1.387,1.387,220.339,155.394,162.029
0.159,13.292,1.378,1.378,220.337,155.331,162.020
0.160,13.367,1.370,1.370,220.318,155.263,161.993
0.161,13.456,1.361,1.361,220.287,155.190,161.953
0.162,13.555,1.352,1.352,220.247,155.113,161.904
0.164,13.662,1.343,1.343,220.202,155.032,161.852
0.165,13.771,1.335,1.335,220.157,154.947,161.800
0.166,13.880,1.329,1.329,220.115,154.858,161.754
0.168,13.986,1.326,1.326,220.080,154.766,161.717
0.169,14.087,1.326,1.326,220.056,154.670,161.695
0.170,14.186,1.331,1.331,220.045,154.572,161.690
0.171,14.287,1.341,1.341,220.047,154.471,161.700
0.173,14.391,1.357,1.357,220.058,154.370,161.722
0.174,14.498,1.379,1.379,220.077,154.269,161.752
0.175,14.606,1.404,1.404,220.102,154.170,161.787
0.176,14.713,1.432,1.432,220.130,154.073,161.824
0.178,14.817,1.459,1.459,220.158,153.980,161.860
0.179,14.914,1.486,1.486,220.185,153.892,161.891
0.180,15.003,1.509,1.509,220.209,153.810,161.914
0.182,15.081,1.527,1.527,220.226,153.734,161.926
0.183,15.149,1.539,1.539,220.239,153.667,161.929
0.184,15.207,1.545,1.545,220.248,153.611,161.927
0.185,15.252,1.546,1.546,220.255,153.567,161.924
0.187,15.283,1.544,1.544,220.263,153.537,161.925
0.188,15.302,1.539,1.539,220.274,153.523,161.934
0.189,15.329,1.534,1.534,220.289,153.526,161.955
0.191,15.379,1.529,1.529,220.310,153.550,161.994
0.192,15.459,1.525,1.525,220.339,153.595,162.054
0.193,15.576,1.524,1.524,220.378,153.664,162.140
0.194,15.730,1.525,1.525,220.429,153.755,162.253
0.196,15.914,1.526,1.526,220.493,153.865,162.387
0.197,16.122,1.528,1.528,220.570,153.987,162.536
0.198,16.346,1.530,1.530,220.662,154.116,162.693
0.199,16.579,1.530,1.530,220.770,154.247,162.853
0.201,16.816,1.528,1.528,220.894,154.374,163.010
0.202,17.052,1.522,1.522,221.036,154.493,163.157
0.203,17.283,1.513,1.513,221.197,154.597,163.287
0.205,17.509,1.499,1.499,221.376,154.681,163.395
0.206,17.733,1.483,1.483,221.576,154.740,163.475
0.207,17.959,1.464,1.464,221.793,154.778,163.528
0.208,18.190,1.442,1.442,222.021,154.799,163.556
0.210,18.426,1.417,1.417,222.257,154.809,163.563
0.211,18.665,1.391,1.391,222.496,154.812,163.552
0.212,18.904,1.364,1.364,222.733,154.814,163.524
0.214,19.138,1.336,1.336,222.964,154.820,163.484
0.215,19.363,1.308,1.308,223.183,154.835,163.435
0.216,19.576,1.282,1.282,223.386,154.865,163.378
0.217,19.775,1.259,1.259,223.569,154.914,163.318
0.219,19.961,1.241,1.241,223.730,154.984,163.256
0.220,20.137,1.229,1.229,223.870,155.071,163.193
0.221,20.306,1.225,1.225,223.991,155.170,163.129
0.223,20.468,1.230,1.230,224.095,155.277,163.067
0.224,20.622,1.244,1.244,224.183,155.388,163.007
0.225,20.767,1.265,1.265,224.258,155.499,162.950
0.226,20.902,1.292,1.292,224.321,155.605,162.896
0.228,21.023,1.322,1.322,224.374,155.703,162.847
0.229,21.128,1.354,1.354,224.418,155.787,162.804
0.230,21.214,1.384,1.384,224.456,155.855,162.767
0.231,21.283,1.412,1.412,224.488,155.908,162.736
0.233,21.337,1.435,1.435,224.515,155.948,162.710
0.234,21.379,1.452,1.452,224.536,155.977,162.690
0.235,21.411,1.463,1.463,224.553,155.999,162.673
0.237,21.435,1.470,1.470,224.566,156.015,162.661
0.238,21.453,1.474,1.474,224.575,156.027,162.651
0.239,21.467,1.475,1.475,224.581,156.038,162.645
0.240,21.481,1.474,1.474,224.584,156.050,162.640
0.242,21.497,1.473,1.473,224.585,156.066,162.637
0.243,21.518,1.471,1.471,224.585,156.087,162.633
0.244,21.547,1.471,1.471,224.589,156.115,162.628
0.246,21.585,1.476,1.476,224.598,156.151,162.617
0.247,21.638,1.489,1.489,224.617,156.197,162.599
0.248,21.708,1.512,1.512,224.648,156.254,162.571
0.249,21.801,1.550,1.550,224.694,156.323,162.532
0.251,21.919,1.605,1.605,224.758,156.407,162.478
0.252,22.068,1.680,1.680,224.844,156.506,162.407
0.253,22.252,1.778,1.778,224.954,156.621,162.316
0.254,22.471,1.897,1.897,225.089,156.754,162.206
0.256,22.718,2.030,2.030,225.244,156.899,162.079
0.257,22.984,2.170,2.170,225.411,157.051,161.939
0.258,23.258,2.310,2.310,225.583,157.204,161.789
0.260,23.533,2.443,2.443,225.752,157.355,161.635
0.261,23.798,2.562,2.562,225.913,157.496,161.478
0.262,24.044,2.660,2.660,226.057,157.624,161.324
0.263,24.264,2.731,2.731,226.178,157.732,161.177
0.265,24.449,2.775,2.775,226.269,157.817,161.039
0.266,24.595,2.796,2.796,226.323,157.872,160.915
0.267,24.708,2.800,2.800,226.345,157.900,160.808
0.269,24.796,2.793,2.793,226.344,157.906,160.721
0.270,24.865,2.778,2.778,226.329,157.895,160.654
0.271,24.916,2.762,2.762,226.310,157.873,160.612
0.272,24.952,2.750,2.750,226.297,157.844,160.595
0.274,24.985,2.745,2.745,226.299,157.813,160.608
0.275,25.043,2.750,2.750,226.325,157.786,160.651
0.276,25.143,2.762,2.762,226.386,157.768,160.728
0.277,25.296,2.780,2.780,226.490,157.764,160.841
0.279,25.507,2.804,2.804,226.640,157.776,160.988
0.280,25.765,2.832,2.832,226.828,157.802,161.162
0.281,26.057,2.862,2.862,227.045,157.837,161.355
0.283,26.372,2.894,2.894,227.282,157.880,161.559
0.284,26.697,2.926,2.926,227.529,157.926,161.765
0.285,27.019,2.958,2.958,227.776,157.972,161.966
0.286,27.325,2.989,2.989,228.015,158.015,162.153
0.288,27.604,3.019,3.019,228.236,158.052,162.318
0.289,27.842,3.048,3.048,228.430,158.079,162.453
0.290,28.029,3.076,3.076,228.589,158.093,162.551
0.292,28.169,3.103,3.103,228.714,158.096,162.615
0.293,28.269,3.127,3.127,228.808,158.089,162.649
0.294,28.338,3.150,3.150,228.874,158.073,162.659
0.295,28.387,3.171,3.171,228.916,158.050,162.650
0.297,28.430,3.191,3.191,228.938,158.022,162.626
0.298,28.476,3.209,3.209,228.944,157.990,162.593
0.299,28.527,3.225,3.225,228.936,157.957,162.556
0.301,28.579,3.241,3.241,228.919,157.924,162.519
0.302,28.629,3.255,3.255,228.896,157.892,162.489
0.303,28.673,3.268,3.268,228.870,157.862,162.469
0.304,28.710,3.280,3.280,228.844,157.837,162.461
0.306,28.742,3.290,3.290,228.821,157.815,162.467
0.307,28.775,3.294,3.294,228.805,157.798,162.490
0.308,28.819,3.291,3.291,228.799,157.786,162.533
0.309,28.883,3.279,3.279,228.805,157.781,162.597
0.311,28.974,3.255,3.255,228.826,157.782,162.684
0.312,29.094,3.218,3.218,228.867,157.790,162.798
0.313,29.250,3.165,3.165,228.928,157.806,162.940
0.315,29.442,3.097,3.097,229.013,157.830,163.110
0.316,29.663,3.017,3.017,229.117,157.861,163.303
0.317,29.903,2.930,2.930,229.234,157.897,163.510
0.318,30.153,2.841,2.841,229.359,157.936,163.722
0.320,30.401,2.756,2.756,229.487,157.977,163.931
0.321,30.639,2.679,2.679,229.611,158.017,164.130
0.322,30.855,2.614,2.614,229.727,158.055,164.309
0.324,31.041,2.568,2.568,229.828,158.089,164.461
0.325,31.186,2.542,2.542,229.910,158.118,164.577
0.326,31.281,2.532,2.532,229.967,158.139,164.650
0.327,31.330,2.532,2.532,229.999,158.153,164.683
0.329,31.345,2.537,2.537,230.012,158.162,164.686
0.330,31.362,2.543,2.543,230.010,158.166,164.670
0.331,31.388,2.543,2.543,229.998,158.167,164.646
0.332,31.416,2.534,2.534,229.980,158.167,164.626
0.334,31.436,2.509,2.509,229.961,158.167,164.619
0.335,31.459,2.468,2.468,229.946,158.168,164.636
0.336,31.513,2.414,2.414,229.940,158.172,164.689
0.338,31.612,2.351,2.351,229.946,158.181,164.788
0.339,31.764,2.284,2.284,229.969,158.194,164.938
0.340,31.958,2.216,2.216,230.007,158.208,165.128
0.341,32.183,2.153,2.153,230.058,158.219,165.346
0.343,32.426,2.099,2.099,230.121,158.224,165.580
0.344,32.675,2.057,2.057,230.194,158.218,165.818
0.345,32.919,2.030,2.030,230.276,158.199,166.048
0.347,33.150,2.015,2.015,230.365,158.162,166.257
0.348,33.358,2.010,2.010,230.459,158.103,166.434
0.349,33.542,2.013,2.013,230.556,158.019,166.565
0.350,33.710,2.022,2.022,230.656,157.907,166.641
0.352,33.881,2.035,2.035,230.756,157.771,166.665
0.353,34.066,2.049,2.049,230.855,157.616,166.645
0.354,34.266,2.064,2.064,230.952,157.449,166.592
0.355,34.477,2.078,2.078,231.045,157.276,166.514
0.357,34.691,2.090,2.090,231.132,157.105,166.421
0.358,34.899,2.102,2.102,231.213,156.940,166.322
0.359,35.091,2.114,2.114,231.285,156.790,166.228
0.361,35.257,2.126,2.126,231.348,156.659,166.147
0.362,35.386,2.138,2.138,231.399,156.555,166.088
0.363,35.478,2.150,2.150,231.439,156.479,166.056
0.364,35.540,2.164,2.164,231.469,156.426,166.046
0.366,35.582,2.177,2.177,231.490,156.390,166.053
0.367,35.617,2.191,2.191,231.505,156.365,166.072
0.368,35.652,2.205,2.205,231.516,156.344,166.098
0.370,35.687,2.218,2.218,231.523,156.323,166.126
0.371,35.725,2.230,2.230,231.529,156.295,166.150
0.372,35.769,2.240,2.240,231.535,156.254,166.166
0.373,35.830,2.249,2.249,231.543,156.194,166.169
0.375,35.915,2.255,2.255,231.554,156.111,166.154
0.376,36.023,2.260,2.260,231.568,156.008,166.123
0.377,36.149,2.263,2.263,231.583,155.890,166.082
0.379,36.286,2.266,2.266,231.598,155.763,166.032
0.380,36.428,2.269,2.269,231.611,155.632,165.979
0.381,36.569,2.274,2.274,231.621,155.502,165.925
0.382,36.702,2.280,2.280,231.626,155.379,165.875
0.384,36.821,2.288,2.288,231.626,155.268,165.833
0.385,36.920,2.299,2.299,231.618,155.175,165.802
0.386,36.994,2.311,2.311,231.601,155.104,165.786
0.387,37.048,2.323,2.323,231.578,155.056,165.786
0.389,37.092,2.330,2.330,231.550,155.025,165.800
0.390,37.135,2.332,2.332,231.523,155.006,165.828
0.391,37.182,2.326,2.326,231.501,154.994,165.867
0.393,37.235,2.309,2.309,231.487,154.983,165.917
0.394,37.294,2.279,2.279,231.485,154.969,165.975
0.395,37.365,2.235,2.235,231.499,154.945,166.040
0.396,37.453,2.178,2.178,231.533,154.907,166.111
0.398,37.564,2.114,2.114,231.592,154.849,166.186
0.399,37.705,2.044,2.044,231.677,154.768,166.263
0.400,37.872,1.974,1.974,231.782,154.665,166.343
0.402,38.062,1.906,1.906,231.901,154.542,166.427
0.403,38.269,1.845,1.845,232.027,154.404,166.513
0.404,38.486,1.794,1.794,232.153,154.251,166.602
0.405,38.710,1.755,1.755,232.274,154.087,166.694
0.407,38.934,1.729,1.729,232.382,153.915,166.790
0.408,39.156,1.713,1.713,232.470,153.737,166.889
0.409,39.374,1.708,1.708,232.533,153.555,166.992
0.410,39.587,1.710,1.710,232.563,153.374,167.098
0.412,39.798,1.719,1.719,232.562,153.193,167.207
0.413,40.009,1.734,1.734,232.534,153.013,167.315
0.414,40.223,1.753,1.753,232.486,152.835,167.422
0.416,40.436,1.776,1.776,232.423,152.659,167.525
0.417,40.647,1.801,1.801,232.349,152.486,167.622
0.418,40.854,1.827,1.827,232.270,152.317,167.710
0.419,41.054,1.855,1.855,232.191,152.151,167.788
0.421,41.243,1.883,1.883,232.118,151.989,167.854
0.422,41.419,1.912,1.912,232.056,151.832,167.905
0.423,41.582,1.940,1.940,232.008,151.680,167.941
0.425,41.734,1.966,1.966,231.973,151.535,167.963
0.426,41.875,1.991,1.991,231.949,151.396,167.975
0.427,42.008,2.013,2.013,231.934,151.264,167.979
0.428,42.131,2.034,2.034,231.928,151.141,167.976
0.430,42.246,2.051,2.051,231.927,151.027,167.971
0.431,42.351,2.067,2.067,231.932,150.922,167.964
0.432,42.446,2.079,2.079,231.939,150.827,167.958
0.434,42.530,2.088,2.088,231.947,150.743,167.956
0.435,42.603,2.093,2.093,231.956,150.671,167.960
0.436,42.666,2.096,2.096,231.964,150.609,167.970
0.437,42.721,2.097,2.097,231.974,150.558,167.984
0.439,42.769,2.096,2.096,231.987,150.514,168.001
0.440,42.814,2.096,2.096,232.004,150.478,168.021
0.441,42.856,2.098,2.098,232.026,150.448,168.041
0.442,42.900,2.102,2.102,232.054,150.422,168.062
0.444,42.946,2.109,2.109,232.089,150.400,168.081
0.445,42.997,2.122,2.122,232.134,150.380,168.098
0.446,43.056,2.138,2.138,232.188,150.362,168.112
0.448,43.124,2.158,2.158,232.252,150.343,168.122
0.449,43.198,2.177,2.177,232.324,150.324,168.133
0.450,43.279,2.195,2.195,232.400,150.304,168.147
0.451,43.364,2.210,2.210,232.479,150.280,168.168
0.453,43.453,2.219,2.219,232.559,150.254,168.198
0.454,43.547,2.220,2.220,232.637,150.224,168.241
0.455,43.647,2.212,2.212,232.710,150.189,168.300
0.457,43.758,2.195,2.195,232.777,150.149,168.377
0.458,43.882,2.170,2.170,232.835,150.102,168.478
0.459,44.026,2.139,2.139,232.882,150.048,168.602
0.460,44.187,2.105,2.105,232.920,149.987,168.747
0.462,44.365,2.069,2.069,232.951,149.918,168.907
0.463,44.555,2.033,2.033,232.976,149.841,169.079
0.464,44.754,1.999,1.999,232.998,149.756,169.258
0.465,44.958,1.969,1.969,233.020,149.663,169.438
0.467,45.163,1.944,1.944,233.042,149.562,169.615
0.468,45.366,1.925,1.925,233.067,149.452,169.784
0.469,45.564,1.913,1.913,233.098,149.334,169.940
0.471,45.756,1.907,1.907,233.135,149.206,170.079
0.472,45.943,1.909,1.909,233.181,149.071,170.199
0.473,46.125,1.919,1.919,233.232,148.931,170.304
0.474,46.304,1.937,1.937,233.289,148.788,170.394
0.476,46.478,1.965,1.965,233.350,148.645,170.472
0.477,46.646,2.001,2.001,233.414,148.504,170.539
0.478,46.809,2.042,2.042,233.481,148.369,170.600
0.480,46.963,2.087,2.087,233.548,148.240,170.654
0.481,47.108,2.132,2.132,233.614,148.122,170.705
0.482,47.242,2.175,2.175,233.680,148.017,170.754
0.483,47.364,2.215,2.215,233.743,147.925,170.804
0.485,47.474,2.248,2.248,233.804,147.847,170.853
0.486,47.575,2.273,2.273,233.862,147.782,170.904
0.487,47.667,2.290,2.290,233.917,147.729,170.955
0.488,47.753,2.300,2.300,233.970,147.687,171.007
0.490,47.832,2.305,2.305,234.020,147.654,171.060
0.491,47.907,2.306,2.306,234.067,147.631,171.113
0.492,47.979,2.303,2.303,234.111,147.615,171.168
0.494,48.048,2.299,2.299,234.152,147.607,171.224
0.495,48.117,2.295,2.295,234.189,147.605,171.280
0.496,48.184,2.291,2.291,234.225,147.607,171.337
0.497,48.251,2.288,2.288,234.261,147.611,171.394
0.499,48.317,2.286,2.286,234.300,147.615,171.448
0.500,48.383,2.284,2.284,234.342,147.616,171.498
0.501,48.450,2.282,2.282,234.391,147.612,171.544
0.503,48.521,2.281,2.281,234.447,147.602,171.584
0.504,48.598,2.280,2.280,234.514,147.581,171.617
0.505,48.686,2.279,2.279,234.593,147.550,171.642
0.506,48.791,2.277,2.277,234.686,147.504,171.657
0.508,48.913,2.276,2.276,234.793,147.443,171.661
0.509,49.051,2.276,2.276,234.909,147.371,171.655
0.510,49.199,2.276,2.276,235.032,147.290,171.640
0.512,49.352,2.277,2.277,235.156,147.204,171.614
0.513,49.507,2.279,2.279,235.278,147.114,171.578
0.514,49.660,2.283,2.283,235.392,147.024,171.533
0.515,49.806,2.288,2.288,235.495,146.937,171.478
0.517,49.941,2.295,2.295,235.583,146.856,171.414
0.518,50.065,2.303,2.303,235.651,146.784,171.340
0.519,50.176,2.312,2.312,235.696,146.722,171.258
0.520,50.280,2.322,2.322,235.721,146.672,171.171
0.522,50.377,2.330,2.330,235.731,146.631,171.084
