"T","Distance","Radius","FreeRadius","X","Y","Z"
0.000,0.000,1.077,1.077,215.229,182.770,168.375
0.002,0.334,1.060,1.060,215.002,182.551,168.485
0.003,0.665,1.045,1.045,214.778,182.333,168.594
0.005,0.988,1.036,1.036,214.559,182.121,168.700
0.006,1.301,1.035,1.035,214.346,181.914,168.801
0.008,1.600,1.046,1.046,214.143,181.717,168.896
0.009,1.882,1.069,1.069,213.951,181.530,168.983
0.011,2.143,1.109,1.109,213.773,181.355,169.062
0.012,2.380,1.164,1.164,213.611,181.196,169.130
0.014,2.589,1.229,1.229,213.468,181.054,169.185
0.015,2.767,1.299,1.299,213.346,180.932,169.228
0.017,2.911,1.368,1.368,213.247,180.831,169.255
0.019,3.018,1.431,1.431,213.174,180.753,169.265
0.020,3.091,1.483,1.483,213.125,180.699,169.261
0.022,3.137,1.520,1.520,213.099,180.664,169.246
0.023,3.166,1.542,1.542,213.090,180.645,169.226
0.025,3.188,1.552,1.552,213.096,180.638,169.206
0.026,3.211,1.553,1.553,213.113,180.640,169.191
0.028,3.237,1.548,1.548,213.138,180.646,169.187
0.029,3.268,1.539,1.539,213.167,180.653,169.197
0.031,3.311,1.528,1.528,213.196,180.658,169.227
0.032,3.372,1.520,1.520,213.222,180.657,169.283
0.034,3.461,1.519,1.519,213.241,180.646,169.369
0.036,3.586,1.529,1.529,213.250,180.621,169.491
0.037,3.751,1.554,1.554,213.246,180.579,169.651
0.039,3.955,1.600,1.600,213.230,180.523,169.846
0.040,4.190,1.670,1.670,213.203,180.455,170.069
0.042,4.448,1.767,1.767,213.166,180.378,170.313
0.043,4.722,1.886,1.886,213.122,180.296,170.571
0.045,5.004,2.015,2.015,213.073,180.211,170.835
0.046,5.287,2.146,2.146,213.019,180.126,171.099
0.048,5.562,2.269,2.269,212.963,180.045,171.357
0.049,5.823,2.373,2.373,212.906,179.970,171.600
0.051,6.061,2.449,2.449,212.850,179.905,171.822
0.053,6.268,2.493,2.493,212.798,179.853,172.016
0.054,6.439,2.513,2.513,212.749,179.817,172.175
0.056,6.569,2.516,2.516,212.706,179.798,172.296
0.057,6.665,2.511,2.511,212.668,179.793,172.384
0.059,6.733,2.505,2.505,212.634,179.801,172.443
0.060,6.782,2.507,2.507,212.603,179.818,172.477
0.062,6.821,2.523,2.523,212.577,179.843,172.490
0.063,6.860,2.552,2.552,212.552,179.873,172.488
0.065,6.901,2.589,2.589,212.530,179.906,172.475
0.066,6.945,2.630,2.630,212.510,179.939,172.455
0.068,6.988,2.668,2.668,212.490,179.970,172.432
0.070,7.026,2.701,2.701,212.471,179.996,172.411
0.071,7.057,2.721,2.721,212.452,180.015,172.397
0.073,7.079,2.728,2.728,212.433,180.026,172.393
0.074,7.101,2.724,2.724,212.412,180.028,172.400
0.076,7.128,2.713,2.713,212.390,180.025,172.416
0.077,7.162,2.699,2.699,212.366,180.018,172.438
0.079,7.201,2.685,2.685,212.338,180.010,172.465
0.080,7.245,2.674,2.674,212.308,180.003,172.495
0.082,7.291,2.671,2.671,212.273,179.999,172.526
0.083,7.341,2.674,2.674,212.234,180.002,172.556
0.085,7.394,2.681,2.681,212.190,180.012,172.584
0.087,7.453,2.688,2.688,212.140,180.033,172.608
0.088,7.520,2.693,2.693,212.084,180.067,172.625
0.090,7.600,2.693,2.693,212.022,180.116,172.634
0.091,7.695,2.684,2.684,211.952,180.180,172.633
0.093,7.804,2.665,2.665,211.878,180.258,172.625
0.094,7.923,2.637,2.637,211.798,180.347,172.611
0.096,8.052,2.600,2.600,211.716,180.444,172.591
0.097,8.186,2.557,2.557,211.632,180.546,172.567
0.099,8.323,2.507,2.507,211.548,180.650,172.541
0.100,8.459,2.453,2.453,211.464,180.754,172.513
0.102,8.592,2.394,2.394,211.383,180.856,172.486
0.104,8.718,2.335,2.335,211.305,180.951,172.460
0.105,8.835,2.275,2.275,211.232,181.039,172.437
0.107,8.938,2.219,2.219,211.164,181.115,172.419
0.108,9.025,2.168,2.168,211.104,181.177,172.405
0.110,9.098,2.124,2.124,211.051,181.225,172.398
0.111,9.157,2.091,2.091,211.003,181.261,172.394
0.113,9.207,2.069,2.069,210.959,181.284,172.394
0.114,9.250,2.058,2.058,210.918,181.296,172.397
0.116,9.290,2.055,2.055,210.878,181.299,172.401
0.117,9.330,2.059,2.059,210.839,181.293,172.405
0.119,9.373,2.068,2.068,210.799,181.279,172.410
0.121,9.421,2.081,2.081,210.756,181.259,172.412
0.122,9.474,2.096,2.096,210.709,181.233,172.413
0.124,9.534,2.112,2.112,210.657,181.202,172.410
0.125,9.602,2.128,2.128,210.599,181.168,172.403
0.127,9.678,2.144,2.144,210.533,181.132,172.392
0.128,9.762,2.159,2.159,210.459,181.095,172.377
0.130,9.853,2.174,2.174,210.377,181.060,172.361
0.131,9.950,2.188,2.188,210.286,181.028,172.345
0.133,10.054,2.200,2.200,210.187,181.001,172.332
0.134,10.165,2.210,2.210,210.078,180.981,172.323
0.136,10.283,2.217,2.217,209.960,180.970,172.320
0.138,10.411,2.220,2.220,209.833,180.969,172.324
0.139,10.549,2.219,2.219,209.696,180.980,172.338
0.141,10.701,2.214,2.214,209.548,181.006,172.362
0.142,10.869,2.203,2.203,209.390,181.048,172.400
0.144,11.055,2.187,2.187,209.222,181.108,172.453
0.145,11.259,2.171,2.171,209.044,181.184,172.519
0.147,11.478,2.157,2.157,208.860,181.273,172.597
0.148,11.706,2.149,2.149,208.674,181.372,172.685
0.150,11.940,2.149,2.149,208.488,181.476,172.779
0.151,12.174,2.161,2.161,208.304,181.583,172.879
0.153,12.403,2.187,2.187,208.128,181.688,172.980
0.155,12.623,2.224,2.224,207.960,181.788,173.080
0.156,12.828,2.268,2.268,207.806,181.880,173.179
0.158,13.013,2.312,2.312,207.666,181.959,173.272
0.159,13.174,2.353,2.353,207.546,182.023,173.357
0.161,13.306,2.387,2.387,207.447,182.067,173.433
0.162,13.407,2.407,2.407,207.372,182.089,173.497
0.164,13.482,2.414,2.414,207.318,182.091,173.550
0.165,13.541,2.412,2.412,207.281,182.076,173.592
0.167,13.591,2.403,2.403,207.257,182.047,173.625
0.168,13.642,2.392,2.392,207.242,182.006,173.650
0.170,13.696,2.382,2.382,207.232,181.956,173.668
0.172,13.753,2.377,2.377,207.223,181.900,173.680
0.173,13.813,2.380,2.380,207.212,181.841,173.687
0.175,13.875,2.390,2.390,207.194,181.783,173.689
0.176,13.938,2.404,2.404,207.166,181.727,173.689
0.178,14.004,2.419,2.419,207.124,181.676,173.686
0.179,14.078,2.431,2.431,207.063,181.634,173.682
0.181,14.164,2.439,2.439,206.983,181.601,173.678
0.182,14.262,2.439,2.439,206.888,181.577,173.673
0.184,14.372,2.431,2.431,206.780,181.561,173.666
0.185,14.490,2.415,2.415,206.663,181.552,173.659
0.187,14.614,2.396,2.396,206.539,181.550,173.649
0.189,14.741,2.375,2.375,206.412,181.554,173.638
0.190,14.870,2.354,2.354,206.285,181.563,173.624
0.192,14.996,2.337,2.337,206.161,181.576,173.608
0.193,15.116,2.324,2.324,206.042,181.593,173.590
0.195,15.229,2.316,2.316,205.934,181.612,173.568
0.196,15.331,2.313,2.313,205.837,181.634,173.543
0.198,15.420,2.313,2.313,205.755,181.657,173.515
0.199,15.500,2.315,2.315,205.686,181.682,173.484
0.201,15.575,2.320,2.320,205.626,181.710,173.449
0.202,15.648,2.326,2.326,205.571,181.740,173.413
0.204,15.722,2.332,2.332,205.518,181.775,173.373
0.206,15.800,2.335,2.335,205.464,181.813,173.332
0.207,15.886,2.334,2.334,205.403,181.856,173.289
0.209,15.981,2.325,2.325,205.335,181.904,173.245
0.210,16.089,2.307,2.307,205.253,181.959,173.200
0.212,16.213,2.276,2.276,205.156,182.019,173.154
0.213,16.356,2.232,2.232,205.039,182.087,173.107
0.215,16.522,2.180,2.180,204.898,182.163,173.060
0.216,16.711,2.128,2.128,204.735,182.246,173.014
0.218,16.918,2.086,2.086,204.552,182.333,172.971
0.219,17.137,2.063,2.063,204.356,182.423,172.934
0.221,17.362,2.068,2.068,204.151,182.512,172.904
0.223,17.590,2.109,2.109,203.941,182.599,172.886
0.224,17.814,2.190,2.190,203.733,182.681,172.879
0.226,18.030,2.295,2.295,203.530,182.755,172.888
0.227,18.235,2.412,2.412,203.337,182.819,172.915
0.229,18.425,2.524,2.524,203.161,182.871,172.961
0.230,18.599,2.616,2.616,203.004,182.907,173.029
0.232,18.761,2.674,2.674,202.873,182.926,173.122
0.233,18.918,2.684,2.684,202.771,182.926,173.242
0.235,19.080,2.650,2.650,202.698,182.908,173.384
0.236,19.250,2.583,2.583,202.651,182.874,173.545
0.238,19.432,2.499,2.499,202.625,182.828,173.718
0.240,19.621,2.410,2.410,202.619,182.771,173.899
0.241,19.815,2.330,2.330,202.629,182.707,174.082
0.243,20.009,2.272,2.272,202.652,182.638,174.261
0.244,20.196,2.245,2.245,202.684,182.568,174.432
0.246,20.373,2.244,2.244,202.723,182.498,174.590
0.247,20.532,2.262,2.262,202.765,182.432,174.728
0.249,20.667,2.294,2.294,202.807,182.371,174.842
0.250,20.774,2.332,2.332,202.847,182.320,174.926
0.252,20.849,2.370,2.370,202.880,182.279,174.979
0.253,20.898,2.402,2.402,202.908,182.248,175.006
0.255,20.930,2.424,2.424,202.930,182.226,175.012
0.257,20.952,2.439,2.439,202.945,182.212,175.003
0.258,20.973,2.447,2.447,202.952,182.205,174.984
0.260,20.996,2.449,2.449,202.952,182.204,174.962
0.261,21.018,2.444,2.444,202.944,182.208,174.942
0.263,21.040,2.435,2.435,202.927,182.217,174.929
0.264,21.069,2.421,2.421,202.901,182.229,174.930
0.266,21.112,2.403,2.403,202.866,182.243,174.950
0.267,21.178,2.382,2.382,202.821,182.259,174.995
0.269,21.272,2.358,2.358,202.765,182.275,175.069
0.270,21.395,2.332,2.332,202.701,182.292,175.173
0.272,21.543,2.303,2.303,202.629,182.308,175.301
0.274,21.710,2.273,2.273,202.551,182.324,175.448
0.275,21.891,2.242,2.242,202.470,182.339,175.610
0.277,22.083,2.211,2.211,202.387,182.353,175.782
0.278,22.279,2.182,2.182,202.303,182.365,175.958
0.280,22.474,2.157,2.157,202.221,182.375,176.136
0.281,22.665,2.136,2.136,202.142,182.383,176.309
0.283,22.844,2.121,2.121,202.069,182.389,176.472
0.284,23.008,2.112,2.112,202.002,182.391,176.622
0.286,23.152,2.111,2.111,201.944,182.391,176.754
0.287,23.272,2.114,2.114,201.896,182.387,176.863
0.289,23.370,2.122,2.122,201.857,182.381,176.953
0.291,23.448,2.132,2.132,201.827,182.373,177.025
0.292,23.510,2.146,2.146,201.803,182.366,177.082
0.294,23.558,2.160,2.160,201.786,182.358,177.126
0.295,23.594,2.175,2.175,201.774,182.353,177.160
0.297,23.621,2.189,2.189,201.767,182.350,177.185
0.298,23.641,2.200,2.200,201.763,182.351,177.204
0.300,23.658,2.207,2.207,201.761,182.356,177.220
0.301,23.676,2.210,2.210,201.761,182.367,177.235
0.303,23.700,2.205,2.205,201.761,182.385,177.251
0.304,23.732,2.194,2.194,201.761,182.410,177.271
0.306,23.773,2.177,2.177,201.760,182.443,177.295
0.308,23.821,2.156,2.156,201.757,182.482,177.323
0.309,23.875,2.134,2.134,201.752,182.527,177.354
0.311,23.935,2.113,2.113,201.744,182.575,177.387
0.312,23.999,2.096,2.096,201.733,182.627,177.423
0.314,24.066,2.083,2.083,201.719,182.681,177.460
0.315,24.135,2.076,2.076,201.701,182.735,177.499
0.317,24.205,2.073,2.073,201.678,182.790,177.537
0.318,24.277,2.070,2.070,201.650,182.843,177.576
0.320,24.349,2.067,2.067,201.617,182.894,177.614
0.321,24.420,2.061,2.061,201.577,182.942,177.650
0.323,24.492,2.049,2.049,201.532,182.985,177.685
0.325,24.566,2.030,2.030,201.481,183.025,177.720
0.326,24.642,2.004,2.004,201.424,183.063,177.754
0.328,24.720,1.975,1.975,201.364,183.099,177.789
0.329,24.801,1.944,1.944,201.300,183.134,177.825
0.331,24.885,1.914,1.914,201.234,183.169,177.863
0.332,24.973,1.886,1.886,201.166,183.205,177.905
0.334,25.065,1.863,1.863,201.097,183.244,177.950
0.335,25.160,1.845,1.845,201.027,183.285,178.000
0.337,25.260,1.833,1.833,200.958,183.331,178.056
0.338,25.364,1.826,1.826,200.890,183.381,178.118
0.340,25.475,1.822,1.822,200.824,183.437,178.187
0.342,25.591,1.821,1.821,200.760,183.499,178.262
0.343,25.713,1.823,1.823,200.697,183.564,178.343
0.345,25.838,1.827,1.827,200.636,183.632,178.429
0.346,25.965,1.832,1.832,200.576,183.700,178.517
0.348,26.093,1.836,1.836,200.516,183.768,178.608
0.349,26.220,1.840,1.840,200.457,183.834,178.699
0.351,26.345,1.843,1.843,200.396,183.896,178.789
0.352,26.467,1.843,1.843,200.335,183.953,178.878
0.354,26.584,1.839,1.839,200.273,184.003,178.963
0.355,26.695,1.833,1.833,200.209,184.044,179.045
0.357,26.800,1.825,1.825,200.143,184.075,179.120
0.359,26.899,1.816,1.816,200.075,184.096,179.189
0.360,26.993,1.810,1.810,200.005,184.106,179.251
0.362,27.081,1.807,1.807,199.936,184.107,179.305
0.363,27.163,1.809,1.809,199.868,184.102,179.350
0.365,27.239,1.817,1.817,199.802,184.091,179.388
0.366,27.309,1.831,1.831,199.741,184.076,179.416
0.368,27.370,1.845,1.845,199.685,184.059,179.435
0.369,27.424,1.857,1.857,199.635,184.041,179.444
0.371,27.468,1.862,1.862,199.594,184.024,179.443
0.372,27.506,1.856,1.856,199.562,184.009,179.431
0.374,27.539,1.836,1.836,199.540,183.998,179.409
0.376,27.574,1.802,1.802,199.531,183.993,179.375
0.377,27.618,1.757,1.757,199.533,183.995,179.331
0.379,27.670,1.708,1.708,199.543,184.006,179.281
0.380,27.726,1.661,1.661,199.557,184.027,179.231
0.382,27.786,1.622,1.622,199.573,184.060,179.184
0.383,27.848,1.597,1.597,199.587,184.107,179.145
0.385,27.917,1.592,1.592,199.596,184.169,179.118
0.386,27.996,1.604,1.604,199.595,184.248,179.108
0.388,28.095,1.626,1.626,199.583,184.346,179.119
0.389,28.222,1.653,1.653,199.554,184.464,179.156
0.391,28.384,1.677,1.677,199.507,184.603,179.224
0.393,28.589,1.691,1.691,199.437,184.767,179.325
0.394,28.842,1.689,1.689,199.342,184.955,179.465
0.396,29.138,1.666,1.666,199.224,185.164,179.638
0.397,29.469,1.630,1.630,199.087,185.390,179.838
0.399,29.825,1.588,1.588,198.936,185.628,180.055
0.400,30.196,1.548,1.548,198.776,185.872,180.284
0.402,30.572,1.518,1.518,198.611,186.119,180.515
0.403,30.944,1.505,1.505,198.445,186.362,180.742
0.405,31.302,1.517,1.517,198.282,186.598,180.956
0.406,31.636,1.554,1.554,198.127,186.821,181.150
0.408,31.936,1.608,1.608,197.985,187.027,181.317
0.410,32.194,1.673,1.673,197.860,187.210,181.449
0.411,32.401,1.742,1.742,197.756,187.366,181.537
0.413,32.557,1.807,1.807,197.676,187.492,181.580
0.414,32.673,1.862,1.862,197.617,187.592,181.581
0.416,32.764,1.903,1.903,197.578,187.667,181.548
0.417,32.850,1.930,1.930,197.556,187.721,181.486
0.419,32.943,1.947,1.947,197.549,187.758,181.400
0.420,33.048,1.958,1.958,197.554,187.779,181.297
0.422,33.163,1.965,1.965,197.571,187.787,181.184
0.423,33.285,1.972,1.972,197.595,187.787,181.064
0.425,33.407,1.982,1.982,197.625,187.781,180.946
0.427,33.524,1.996,1.996,197.660,187.771,180.835
0.428,33.630,2.014,2.014,197.695,187.761,180.736
0.430,33.718,2.034,2.034,197.731,187.754,180.655
0.431,33.789,2.056,2.056,197.764,187.752,180.592
0.433,33.845,2.079,2.079,197.794,187.755,180.545
0.434,33.891,2.101,2.101,197.821,187.766,180.510
0.436,33.930,2.121,2.121,197.844,187.786,180.485
0.437,33.969,2.139,2.139,197.862,187.816,180.467
0.439,34.015,2.152,2.152,197.874,187.857,180.452
0.440,34.071,2.160,2.160,197.879,187.911,180.438
0.442,34.141,2.159,2.159,197.877,187.979,180.422
0.444,34.228,2.149,2.149,197.867,188.063,180.401
0.445,34.335,2.128,2.128,197.847,188.164,180.373
0.447,34.464,2.097,2.097,197.818,188.283,180.333
0.448,34.616,2.062,2.062,197.779,188.421,180.281
0.450,34.789,2.027,2.027,197.732,188.574,180.217
0.451,34.978,1.998,1.998,197.678,188.739,180.142
0.453,35.180,1.980,1.980,197.618,188.912,180.057
0.454,35.391,1.978,1.978,197.554,189.090,179.962
0.456,35.608,1.995,1.995,197.488,189.269,179.858
0.457,35.826,2.031,2.031,197.422,189.445,179.747
0.459,36.043,2.081,2.081,197.357,189.615,179.630
0.461,36.255,2.141,2.141,197.294,189.775,179.507
0.462,36.458,2.209,2.209,197.235,189.922,179.379
0.464,36.651,2.280,2.280,197.182,190.053,179.247
0.465,36.831,2.351,2.351,197.137,190.163,179.112
0.467,36.998,2.418,2.418,197.099,190.253,178.976
0.468,37.154,2.482,2.482,197.069,190.326,178.841
0.470,37.300,2.542,2.542,197.047,190.386,178.711
0.471,37.434,2.597,2.597,197.032,190.435,178.586
0.473,37.558,2.646,2.646,197.024,190.477,178.471
0.474,37.669,2.689,2.689,197.022,190.515,178.367
0.476,37.766,2.724,2.724,197.028,190.552,178.276
0.478,37.851,2.752,2.752,197.039,190.591,178.202
0.479,37.924,2.771,2.771,197.057,190.635,178.147
0.481,37.992,2.779,2.779,197.081,190.688,178.113
0.482,38.064,2.776,2.776,197.110,190.753,178.102
0.484,38.151,2.760,2.760,197.145,190.832,178.117
0.485,38.258,2.730,2.730,197.185,190.924,178.155
0.487,38.384,2.688,2.688,197.227,191.027,178.212
0.488,38.526,2.638,2.638,197.272,191.141,178.286
0.490,38.683,2.585,2.585,197.318,191.263,178.373
0.491,38.851,2.534,2.534,197.364,191.392,178.470
0.493,39.027,2.491,2.491,197.408,191.526,178.574
0.495,39.207,2.460,2.460,197.451,191.664,178.683
0.496,39.389,2.447,2.447,197.490,191.804,178.791
0.498,39.569,2.450,2.450,197.524,191.945,178.898
0.499,39.744,2.465,2.465,197.553,192.086,178.999
0.501,39.912,2.490,2.490,197.575,192.224,179.091
0.502,40.070,2.520,2.520,197.590,192.358,179.174
0.504,40.221,2.552,2.552,197.600,192.489,179.247
0.505,40.364,2.583,2.583,197.605,192.616,179.313
0.507,40.499,2.610,2.610,197.607,192.738,179.372
0.509,40.628,2.632,2.632,197.606,192.856,179.424
0.510,40.750,2.650,2.650,197.604,192.968,179.472
0.512,40.864,2.661,2.661,197.601,193.074,179.516
0.513,40.972,2.667,2.667,197.600,193.173,179.556
0.515,41.072,2.667,2.667,197.600,193.266,179.594
0.516,41.166,2.661,2.661,197.603,193.353,179.631
0.518,41.253,2.649,2.649,197.610,193.431,179.668
0.519,41.334,2.637,2.637,197.622,193.502,179.705
0.521,41.410,2.627,2.627,197.636,193.567,179.742
0.522,41.483,2.622,2.622,197.651,193.628,179.778
0.524,41.552,2.625,2.625,197.665,193.686,179.813
0.526,41.620,2.640,2.640,197.674,193.745,179.846
0.527,41.687,2.667,2.667,197.676,193.805,179.876
0.529,41.757,2.705,2.705,197.670,193.869,179.903
0.530,41.832,2.750,2.750,197.652,193.939,179.925
0.532,41.917,2.796,2.796,197.620,194.016,179.942
0.533,42.017,2.842,2.842,197.573,194.103,179.953
0.535,42.136,2.882,2.882,197.506,194.201,179.958
0.536,42.278,2.914,2.914,197.420,194.314,179.956
0.538,42.443,2.938,2.938,197.312,194.439,179.947
0.539,42.627,2.957,2.957,197.189,194.574,179.932
0.541,42.824,2.972,2.972,197.054,194.716,179.913
0.543,43.029,2.988,2.988,196.911,194.862,179.890
0.544,43.237,3.006,3.006,196.765,195.008,179.864
0.546,43.442,3.031,3.031,196.620,195.151,179.838
0.547,43.638,3.062,3.062,196.481,195.287,179.813
0.549,43.820,3.098,3.098,196.353,195.413,179.788
0.550,43.982,3.136,3.136,196.238,195.526,179.767
0.552,44.120,3.173,3.173,196.142,195.623,179.750
0.553,44.226,3.206,3.206,196.070,195.700,179.738
0.555,44.297,3.231,3.231,196.024,195.754,179.732
0.556,44.337,3.246,3.246,196.002,195.787,179.732
0.558,44.354,3.251,3.251,196.000,195.804,179.737
0.560,44.369,3.248,3.248,196.012,195.806,179.744
0.561,44.395,3.239,3.239,196.035,195.798,179.752
0.563,44.428,3.226,3.226,196.064,195.782,179.760
0.564,44.464,3.212,3.212,196.093,195.763,179.767
0.566,44.496,3.199,3.199,196.119,195.744,179.771
0.567,44.519,3.188,3.188,196.135,195.728,179.771
0.569,44.531,3.182,3.182,196.139,195.718,179.765
0.570,44.550,3.182,3.182,196.125,195.719,179.752
0.572,44.595,3.189,3.189,196.088,195.733,179.731
0.573,44.669,3.205,3.205,196.027,195.762,179.701
0.575,44.768,3.230,3.230,195.945,195.805,179.664
0.577,44.889,3.266,3.266,195.847,195.860,179.620
0.578,45.026,3.312,3.312,195.736,195.924,179.572
0.580,45.175,3.365,3.365,195.616,195.997,179.521
0.581,45.331,3.419,3.419,195.493,196.076,179.469
0.583,45.489,3.472,3.472,195.369,196.160,179.416
0.584,45.646,3.520,3.520,195.249,196.247,179.365
0.586,45.796,3.558,3.558,195.136,196.334,179.317
0.587,45.936,3.583,3.583,195.036,196.421,179.273
0.589,46.061,3.597,3.597,194.952,196.505,179.235
0.590,46.168,3.604,3.604,194.888,196.585,179.205
0.592,46.258,3.604,3.604,194.843,196.660,179.181
0.594,46.336,3.602,3.602,194.815,196.731,179.165
0.595,46.405,3.599,3.599,194.802,196.797,179.154
0.597,46.467,3.599,3.599,194.801,196.860,179.148
0.598,46.527,3.603,3.603,194.810,196.919,179.146
0.600,46.585,3.609,3.609,194.826,196.974,179.148
0.601,46.641,3.617,3.617,194.847,197.027,179.153
0.603,46.697,3.626,3.626,194.870,197.076,179.160
0.604,46.750,3.635,3.635,194.894,197.123,179.168
0.606,46.800,3.642,3.642,194.915,197.167,179.177
0.607,46.846,3.648,3.648,194.931,197.210,179.186
0.609,46.889,3.652,3.652,194.941,197.250,179.195
0.611,46.929,3.655,3.655,194.944,197.290,179.203
0.612,46.969,3.657,3.657,194.942,197.329,179.211
0.614,47.009,3.658,3.658,194.934,197.367,179.219
0.615,47.051,3.659,3.659,194.922,197.406,179.227
0.617,47.095,3.661,3.661,194.906,197.446,179.237
0.618,47.142,3.663,3.663,194.886,197.488,179.248
0.620,47.193,3.664,3.664,194.862,197.532,179.260
0.621,47.248,3.664,3.664,194.837,197.578,179.273
0.623,47.306,3.663,3.663,194.809,197.627,179.289
0.624,47.370,3.658,3.658,194.780,197.680,179.307
0.626,47.437,3.651,3.651,194.749,197.737,179.328
0.628,47.510,3.640,3.640,194.718,197.798,179.351
0.629,47.587,3.625,3.625,194.685,197.863,179.378
