"T","Distance","Radius","FreeRadius","X","Y","Z"
0.000,0.000,1.077,1.077,215.229,182.770,168.375
0.001,0.269,1.214,1.214,215.338,182.899,168.167
0.002,0.534,1.349,1.349,215.447,183.027,167.961
0.003,0.793,1.481,1.481,215.553,183.152,167.760
0.004,1.043,1.608,1.608,215.655,183.272,167.567
0.005,1.280,1.729,1.729,215.754,183.387,167.384
0.006,1.501,1.842,1.842,215.846,183.494,167.215
0.007,1.703,1.945,1.945,215.932,183.593,167.061
0.008,1.883,2.037,2.037,216.011,183.681,166.925
0.010,2.038,2.117,2.117,216.080,183.758,166.810
0.011,2.164,2.181,2.181,216.140,183.822,166.718
0.012,2.262,2.232,2.232,216.189,183.872,166.650
0.013,2.335,2.270,2.270,216.230,183.910,166.604
0.014,2.386,2.297,2.297,216.264,183.937,166.576
0.015,2.422,2.315,2.315,216.293,183.954,166.564
0.016,2.448,2.325,2.325,216.318,183.962,166.566
0.017,2.473,2.331,2.331,216.340,183.962,166.578
0.018,2.503,2.333,2.333,216.361,183.956,166.598
0.019,2.539,2.333,2.333,216.384,183.945,166.623
0.020,2.579,2.333,2.333,216.409,183.931,166.651
0.021,2.622,2.335,2.335,216.437,183.913,166.679
0.022,2.667,2.339,2.339,216.469,183.894,166.704
0.023,2.711,2.345,2.345,216.503,183.876,166.724
0.024,2.751,2.352,2.352,216.538,183.861,166.737
0.025,2.789,2.360,2.361,216.574,183.849,166.741
0.026,2.824,2.371,2.371,216.608,183.844,166.732
0.028,2.863,2.382,2.382,216.639,183.846,166.709
0.029,2.913,2.394,2.394,216.667,183.857,166.670
0.030,2.980,2.407,2.407,216.690,183.880,166.611
0.031,3.069,2.421,2.421,216.707,183.915,166.531
0.032,3.183,2.435,2.434,216.717,183.964,166.429
0.033,3.318,2.449,2.449,216.721,184.025,166.308
0.034,3.468,2.464,2.463,216.720,184.094,166.175
0.035,3.627,2.478,2.477,216.715,184.168,166.034
0.036,3.791,2.492,2.490,216.706,184.245,165.890
0.037,3.951,2.505,2.504,216.696,184.321,165.749
0.038,4.104,2.518,2.516,216.685,184.393,165.615
0.039,4.242,2.529,2.528,216.673,184.459,165.494
0.040,4.360,2.539,2.539,216.663,184.515,165.391
0.041,4.451,2.547,2.548,216.655,184.558,165.311
0.042,4.515,2.554,2.557,216.649,184.589,165.255
0.043,4.554,2.561,2.565,216.648,184.607,165.221
0.044,4.572,2.567,2.573,216.652,184.615,165.205
0.046,4.582,2.573,2.581,216.661,184.614,165.204
0.047,4.604,2.581,2.589,216.678,184.607,165.215
0.048,4.639,2.589,2.599,216.703,184.594,165.235
0.049,4.685,2.599,2.610,216.738,184.578,165.261
0.050,4.741,2.612,2.623,216.782,184.560,165.290
0.051,4.806,2.627,2.638,216.838,184.541,165.318
0.052,4.880,2.645,2.656,216.906,184.524,165.342
0.053,4.962,2.665,2.675,216.984,184.508,165.363
0.054,5.050,2.686,2.694,217.069,184.493,165.381
0.055,5.141,2.707,2.714,217.157,184.480,165.397
0.056,5.232,2.728,2.733,217.246,184.466,165.412
0.057,5.321,2.747,2.751,217.333,184.453,165.426
0.058,5.405,2.764,2.766,217.414,184.440,165.440
0.059,5.480,2.778,2.779,217.486,184.426,165.456
0.060,5.544,2.788,2.788,217.547,184.411,165.473
0.061,5.596,2.793,2.792,217.592,184.395,165.493
0.062,5.637,2.792,2.792,217.621,184.378,165.515
0.063,5.670,2.786,2.786,217.639,184.357,165.534
0.065,5.701,2.772,2.773,217.651,184.331,165.546
0.066,5.734,2.752,2.753,217.663,184.300,165.545
0.067,5.781,2.724,2.725,217.680,184.261,165.527
0.068,5.850,2.687,2.688,217.709,184.213,165.486
0.069,5.950,2.641,2.643,217.754,184.155,165.418
0.070,6.091,2.586,2.587,217.821,184.084,165.316
0.071,6.279,2.521,2.521,217.916,184.000,165.177
0.072,6.522,2.446,2.444,218.044,183.902,164.996
0.073,6.818,2.363,2.360,218.204,183.790,164.774
0.074,7.154,2.276,2.270,218.387,183.668,164.519
0.075,7.519,2.186,2.179,218.586,183.540,164.242
0.076,7.899,2.097,2.088,218.791,183.410,163.950
0.077,8.281,2.010,2.001,218.995,183.283,163.652
0.078,8.655,1.929,1.921,219.189,183.161,163.357
0.079,9.006,1.855,1.849,219.364,183.048,163.074
0.080,9.323,1.793,1.791,219.512,182.949,162.812
0.081,9.594,1.743,1.747,219.625,182.868,162.580
0.083,9.810,1.706,1.717,219.696,182.807,162.384
0.084,9.979,1.679,1.699,219.727,182.764,162.224
0.085,10.111,1.661,1.690,219.726,182.735,162.096
0.086,10.218,1.648,1.687,219.698,182.714,161.994
0.087,10.310,1.639,1.686,219.652,182.697,161.916
0.088,10.396,1.630,1.685,219.593,182.680,161.856
0.089,10.479,1.621,1.682,219.528,182.657,161.810
0.090,10.559,1.608,1.672,219.464,182.624,161.774
0.091,10.639,1.590,1.654,219.407,182.577,161.743
0.092,10.723,1.564,1.626,219.364,182.511,161.714
0.093,10.820,1.532,1.589,219.340,182.424,161.682
0.094,10.931,1.495,1.546,219.332,182.318,161.648
0.095,11.058,1.456,1.498,219.338,182.197,161.610
0.096,11.198,1.414,1.449,219.357,182.064,161.570
0.097,11.347,1.372,1.401,219.385,181.925,161.525
0.098,11.503,1.331,1.356,219.420,181.781,161.476
0.099,11.662,1.293,1.317,219.460,181.636,161.423
0.101,11.821,1.259,1.285,219.503,181.495,161.365
0.102,11.976,1.230,1.263,219.547,181.360,161.302
0.103,12.125,1.208,1.252,219.588,181.235,161.233
0.104,12.266,1.190,1.249,219.627,181.121,161.159
0.105,12.400,1.177,1.252,219.664,181.018,161.082
0.106,12.527,1.168,1.260,219.700,180.925,161.003
0.107,12.649,1.162,1.271,219.734,180.841,160.922
0.108,12.764,1.158,1.283,219.767,180.764,160.842
0.109,12.873,1.155,1.294,219.801,180.695,160.764
0.110,12.976,1.154,1.303,219.834,180.633,160.690
0.111,13.073,1.152,1.306,219.868,180.576,160.619
0.112,13.163,1.150,1.304,219.904,180.524,160.555
0.113,13.246,1.147,1.296,219.941,180.476,160.498
0.114,13.323,1.144,1.284,219.979,180.433,160.448
0.115,13.393,1.140,1.268,220.016,180.392,160.405
0.116,13.456,1.137,1.249,220.053,180.355,160.369
0.117,13.512,1.132,1.229,220.088,180.322,160.340
0.119,13.561,1.128,1.208,220.119,180.291,160.319
0.120,13.603,1.124,1.188,220.147,180.263,160.304
0.121,13.638,1.119,1.168,220.170,180.237,160.296
0.122,13.667,1.115,1.151,220.186,180.214,160.295
0.123,13.691,1.111,1.137,220.196,180.192,160.300
0.124,13.714,1.107,1.125,220.199,180.173,160.311
0.125,13.734,1.102,1.115,220.199,180.157,160.324
0.126,13.751,1.098,1.106,220.197,180.144,160.334
0.127,13.761,1.093,1.098,220.196,180.135,160.339
0.128,13.768,1.088,1.090,220.200,180.132,160.334
0.129,13.790,1.082,1.083,220.211,180.134,160.315
0.130,13.833,1.075,1.076,220.232,180.143,160.278
0.131,13.902,1.068,1.068,220.266,180.159,160.221
0.132,14.001,1.060,1.059,220.315,180.184,160.138
0.133,14.135,1.052,1.050,220.382,180.217,160.027
0.134,14.301,1.043,1.041,220.465,180.258,159.889
0.135,14.491,1.035,1.032,220.560,180.308,159.732
0.137,14.698,1.028,1.025,220.663,180.364,159.562
0.138,14.915,1.022,1.019,220.770,180.428,159.384
0.139,15.133,1.018,1.016,220.876,180.497,159.206
0.140,15.347,1.016,1.016,220.976,180.571,159.033
0.141,15.547,1.017,1.019,221.067,180.649,158.872
0.142,15.729,1.021,1.026,221.145,180.732,158.730
0.143,15.885,1.027,1.038,221.204,180.817,158.613
0.144,16.014,1.037,1.052,221.242,180.904,158.525
0.145,16.123,1.048,1.068,221.260,180.992,158.465
0.146,16.219,1.060,1.085,221.263,181.080,158.426
0.147,16.309,1.072,1.103,221.253,181.167,158.406
0.148,16.395,1.084,1.119,221.232,181.250,158.399
0.149,16.478,1.094,1.133,221.205,181.329,158.402
0.150,16.558,1.103,1.144,221.174,181.402,158.410
0.151,16.632,1.109,1.151,221.143,181.469,158.418
0.152,16.697,1.112,1.153,221.114,181.527,158.422
0.153,16.751,1.113,1.151,221.091,181.576,158.418
0.154,16.796,1.111,1.145,221.076,181.615,158.403
0.156,16.836,1.108,1.138,221.066,181.645,158.379
0.157,16.876,1.105,1.129,221.063,181.668,158.346
0.158,16.919,1.102,1.121,221.063,181.684,158.306
0.159,16.966,1.101,1.114,221.068,181.695,158.260
0.160,17.018,1.101,1.109,221.075,181.702,158.209
0.161,17.073,1.105,1.108,221.083,181.705,158.155
0.162,17.131,1.112,1.111,221.092,181.707,158.097
0.163,17.191,1.123,1.120,221.101,181.707,158.039
0.164,17.250,1.137,1.132,221.109,181.708,157.980
0.165,17.310,1.151,1.146,221.116,181.711,157.921
0.166,17.368,1.165,1.160,221.123,181.718,157.863
0.167,17.426,1.178,1.173,221.131,181.729,157.806
0.168,17.485,1.187,1.183,221.141,181.747,157.752
0.169,17.545,1.192,1.189,221.153,181.773,157.699
0.170,17.608,1.190,1.189,221.169,181.808,157.649
0.171,17.677,1.182,1.181,221.190,181.854,157.602
0.172,17.755,1.164,1.165,221.216,181.914,157.559
0.174,17.845,1.140,1.141,221.248,181.987,157.519
0.175,17.947,1.111,1.113,221.287,182.075,157.484
0.176,18.059,1.081,1.083,221.332,182.172,157.449
0.177,18.177,1.053,1.054,221.382,182.272,157.412
0.178,18.296,1.029,1.031,221.437,182.368,157.369
0.179,18.414,1.013,1.014,221.495,182.456,157.317
0.180,18.528,1.008,1.008,221.555,182.528,157.252
0.181,18.641,1.015,1.016,221.617,182.578,157.172
0.182,18.761,1.039,1.039,221.680,182.601,157.072
0.183,18.898,1.081,1.081,221.742,182.590,156.950
0.184,19.065,1.137,1.137,221.802,182.539,156.803
0.185,19.268,1.205,1.204,221.862,182.448,156.631
0.186,19.500,1.281,1.280,221.921,182.326,156.443
0.187,19.753,1.361,1.361,221.980,182.181,156.245
0.188,20.015,1.443,1.443,222.041,182.021,156.046
0.189,20.277,1.524,1.523,222.104,181.855,155.853
0.190,20.529,1.598,1.598,222.171,181.691,155.674
0.192,20.761,1.665,1.665,222.242,181.537,155.517
0.193,20.962,1.720,1.720,222.318,181.402,155.388
0.194,21.126,1.762,1.763,222.400,181.294,155.296
0.195,21.251,1.794,1.795,222.489,181.221,155.247
0.196,21.354,1.816,1.817,222.583,181.181,155.236
0.197,21.450,1.831,1.831,222.678,181.171,155.250
0.198,21.547,1.838,1.839,222.769,181.187,155.278
0.199,21.645,1.841,1.842,222.854,181.223,155.310
0.200,21.740,1.839,1.840,222.930,181.276,155.334
0.201,21.829,1.835,1.836,222.991,181.341,155.338
0.202,21.918,1.830,1.830,223.035,181.414,155.311
0.203,22.024,1.825,1.825,223.058,181.491,155.243
0.204,22.167,1.821,1.820,223.056,181.566,155.121
0.205,22.363,1.817,1.816,223.029,181.638,154.941
0.206,22.606,1.816,1.814,222.981,181.704,154.712
0.207,22.883,1.816,1.814,222.922,181.763,154.448
0.208,23.182,1.819,1.816,222.856,181.816,154.161
0.210,23.488,1.824,1.822,222.792,181.861,153.865
0.211,23.788,1.834,1.832,222.737,181.897,153.572
0.212,24.069,1.847,1.846,222.697,181.924,153.296
0.213,24.317,1.864,1.865,222.680,181.940,153.048
0.214,24.523,1.885,1.888,222.693,181.946,152.843
0.215,24.682,1.908,1.913,222.742,181.940,152.692
0.216,24.811,1.933,1.939,222.827,181.924,152.596
0.217,24.937,1.956,1.964,222.941,181.903,152.546
0.218,25.074,1.978,1.986,223.075,181.880,152.530
0.219,25.221,1.995,2.004,223.221,181.861,152.537
0.220,25.373,2.008,2.015,223.371,181.850,152.556
0.221,25.521,2.014,2.019,223.517,181.852,152.578
0.222,25.657,2.013,2.013,223.651,181.869,152.590
0.223,25.777,2.002,1.996,223.765,181.909,152.582
0.224,25.891,1.982,1.970,223.850,181.973,152.544
0.225,26.024,1.956,1.937,223.901,182.067,152.465
0.226,26.190,1.923,1.898,223.924,182.188,152.353
0.228,26.387,1.886,1.857,223.928,182.332,152.218
0.229,26.606,1.845,1.814,223.923,182.494,152.071
0.230,26.836,1.801,1.773,223.920,182.670,151.923
0.231,27.068,1.756,1.734,223.929,182.856,151.785
0.232,27.294,1.711,1.701,223.960,183.046,151.668
0.233,27.513,1.666,1.675,224.023,183.238,151.582
0.234,27.733,1.623,1.657,224.128,183.427,151.539
0.235,27.973,1.583,1.646,224.286,183.607,151.550
0.236,28.254,1.546,1.640,224.500,183.777,151.619
0.237,28.580,1.514,1.638,224.759,183.935,151.736
0.238,28.940,1.485,1.640,225.050,184.081,151.890
0.239,29.325,1.462,1.644,225.362,184.216,152.069
0.240,29.718,1.446,1.649,225.682,184.339,152.262
0.241,30.105,1.436,1.654,225.998,184.449,152.457
0.242,30.470,1.434,1.657,226.297,184.546,152.642
0.243,30.797,1.439,1.658,226.566,184.631,152.808
0.244,31.070,1.452,1.657,226.793,184.703,152.940
0.246,31.274,1.470,1.655,226.967,184.761,153.030
0.247,31.409,1.493,1.651,227.086,184.807,153.074
0.248,31.488,1.518,1.646,227.157,184.842,153.078
0.249,31.537,1.545,1.642,227.188,184.867,153.049
0.250,31.597,1.571,1.637,227.187,184.883,152.991
0.251,31.682,1.596,1.633,227.160,184.892,152.911
0.252,31.789,1.618,1.630,227.116,184.895,152.814
0.253,31.910,1.635,1.629,227.062,184.893,152.705
0.254,32.037,1.647,1.629,227.006,184.888,152.592
0.255,32.161,1.654,1.630,226.955,184.881,152.479
0.256,32.277,1.656,1.632,226.916,184.873,152.370
0.257,32.383,1.654,1.632,226.888,184.866,152.268
0.258,32.483,1.647,1.631,226.869,184.861,152.170
0.259,32.577,1.635,1.628,226.857,184.860,152.077
0.260,32.668,1.620,1.622,226.851,184.864,151.986
0.261,32.756,1.600,1.612,226.847,184.875,151.898
0.262,32.845,1.577,1.597,226.843,184.893,151.812
0.263,32.936,1.551,1.578,226.839,184.921,151.725
0.265,33.031,1.521,1.554,226.831,184.961,151.639
0.266,33.134,1.491,1.526,226.817,185.012,151.551
0.267,33.246,1.459,1.497,226.796,185.077,151.462
0.268,33.367,1.428,1.467,226.771,185.152,151.370
0.269,33.497,1.399,1.437,226.743,185.237,151.276
0.270,33.634,1.372,1.409,226.715,185.329,151.179
0.271,33.777,1.348,1.385,226.688,185.427,151.079
0.272,33.924,1.329,1.364,226.664,185.529,150.976
0.273,34.074,1.315,1.349,226.645,185.633,150.868
0.274,34.226,1.308,1.340,226.634,185.736,150.757
0.275,34.381,1.305,1.336,226.632,185.838,150.641
0.276,34.536,1.307,1.337,226.642,185.936,150.521
0.277,34.693,1.314,1.342,226.661,186.030,150.397
0.278,34.849,1.323,1.350,226.690,186.118,150.271
0.279,35.003,1.334,1.360,226.725,186.201,150.146
0.280,35.154,1.347,1.372,226.763,186.277,150.022
0.281,35.297,1.361,1.385,226.804,186.345,149.902
0.283,35.433,1.375,1.397,226.845,186.406,149.789
0.284,35.557,1.388,1.409,226.884,186.459,149.683
0.285,35.668,1.401,1.420,226.918,186.503,149.587
0.286,35.764,1.412,1.430,226.946,186.538,149.502
0.287,35.842,1.424,1.440,226.965,186.562,149.430
0.288,35.906,1.436,1.450,226.977,186.579,149.369
0.289,35.960,1.447,1.459,226.982,186.590,149.317
0.290,36.008,1.459,1.468,226.981,186.597,149.270
0.291,36.053,1.471,1.477,226.975,186.604,149.225
0.292,36.099,1.484,1.487,226.966,186.610,149.182
0.293,36.147,1.498,1.497,226.953,186.620,149.135
0.294,36.202,1.513,1.508,226.938,186.635,149.084
0.295,36.267,1.528,1.520,226.923,186.658,149.026
0.296,36.344,1.544,1.532,226.907,186.690,148.957
0.297,36.436,1.560,1.545,226.892,186.732,148.878
0.298,36.538,1.576,1.559,226.877,186.782,148.790
0.299,36.649,1.591,1.575,226.860,186.839,148.696
0.301,36.765,1.606,1.591,226.843,186.900,148.599
0.302,36.883,1.620,1.609,226.823,186.963,148.501
0.303,37.000,1.632,1.629,226.801,187.027,148.406
0.304,37.114,1.643,1.650,226.775,187.089,148.314
0.305,37.221,1.652,1.672,226.746,187.148,148.229
0.306,37.319,1.660,1.695,226.712,187.202,148.154
0.307,37.407,1.668,1.717,226.673,187.248,148.091
0.308,37.485,1.675,1.739,226.631,187.287,148.038
0.309,37.557,1.682,1.760,226.586,187.319,147.992
0.310,37.624,1.689,1.779,226.541,187.344,147.949
0.311,37.688,1.696,1.795,226.497,187.363,147.907
0.312,37.750,1.705,1.809,226.456,187.377,147.862
0.313,37.814,1.715,1.818,226.419,187.385,147.811
0.314,37.882,1.726,1.824,226.389,187.389,147.750
0.315,37.959,1.739,1.827,226.367,187.389,147.675
0.316,38.051,1.753,1.828,226.355,187.385,147.585
0.317,38.160,1.769,1.828,226.353,187.378,147.476
0.319,38.284,1.787,1.830,226.360,187.369,147.352
0.320,38.420,1.806,1.834,226.373,187.360,147.217
0.321,38.563,1.826,1.841,226.390,187.353,147.075
0.322,38.709,1.848,1.854,226.407,187.348,146.931
0.323,38.854,1.872,1.872,226.423,187.348,146.787
0.324,38.993,1.896,1.897,226.435,187.354,146.648
0.325,39.123,1.922,1.930,226.441,187.367,146.519
0.326,39.241,1.949,1.968,226.437,187.389,146.403
0.327,39.346,1.977,2.010,226.422,187.422,146.304
0.328,39.441,2.005,2.054,226.395,187.464,146.224
0.329,39.530,2.034,2.099,226.360,187.513,146.159
0.330,39.614,2.062,2.143,226.321,187.567,146.107
0.331,39.694,2.090,2.185,226.280,187.622,146.065
0.332,39.768,2.118,2.222,226.242,187.675,146.030
0.333,39.834,2.145,2.254,226.210,187.724,145.999
0.334,39.890,2.171,2.280,226.187,187.765,145.970
0.335,39.934,2.196,2.299,226.177,187.796,145.940
0.337,39.974,2.219,2.312,226.184,187.814,145.905
0.338,40.024,2.241,2.321,226.210,187.816,145.863
0.339,40.089,2.261,2.326,226.254,187.804,145.815
0.340,40.170,2.280,2.328,226.312,187.780,145.764
0.341,40.262,2.296,2.329,226.379,187.747,145.710
0.342,40.360,2.310,2.328,226.451,187.708,145.656
0.343,40.460,2.322,2.327,226.524,187.665,145.605
0.344,40.555,2.331,2.327,226.595,187.622,145.558
0.345,40.641,2.338,2.328,226.659,187.581,145.517
0.346,40.713,2.343,2.331,226.712,187.544,145.485
0.347,40.766,2.348,2.335,226.750,187.515,145.463
0.348,40.797,2.353,2.341,226.771,187.495,145.452
0.349,40.812,2.358,2.350,226.780,187.483,145.449
0.350,40.818,2.365,2.360,226.781,187.477,145.450
0.351,40.820,2.375,2.372,226.781,187.476,145.452
0.352,40.824,2.388,2.387,226.785,187.478,145.449
0.353,40.841,2.405,2.405,226.797,187.481,145.439
0.354,40.875,2.426,2.425,226.824,187.484,145.418
0.356,40.934,2.452,2.449,226.871,187.485,145.382
0.357,41.024,2.482,2.476,226.942,187.482,145.326
0.358,41.153,2.516,2.506,227.043,187.473,145.248
0.359,41.318,2.552,2.539,227.174,187.459,145.147
0.360,41.514,2.591,2.577,227.328,187.440,145.029
0.361,41.731,2.632,2.618,227.499,187.416,144.896
0.362,41.962,2.675,2.663,227.679,187.390,144.754
0.363,42.200,2.719,2.713,227.863,187.361,144.607
0.364,42.436,2.763,2.767,228.044,187.331,144.459
0.365,42.662,2.807,2.825,228.216,187.301,144.314
0.366,42.871,2.852,2.885,228.371,187.271,144.178
0.367,43.055,2.895,2.946,228.503,187.242,144.053
0.368,43.207,2.937,3.005,228.608,187.215,143.945
0.369,43.330,2.977,3.063,228.685,187.191,143.854
0.370,43.426,3.014,3.115,228.741,187.168,143.778
0.371,43.501,3.049,3.163,228.780,187.146,143.718
0.372,43.556,3.080,3.202,228.805,187.125,143.674
0.374,43.597,3.107,3.232,228.822,187.105,143.643
0.375,43.627,3.129,3.252,228.835,187.084,143.626
0.376,43.652,3.148,3.262,228.849,187.063,143.622
0.377,43.682,3.162,3.265,228.867,187.041,143.630
0.378,43.724,3.174,3.261,228.895,187.017,143.651
0.379,43.781,3.183,3.252,228.935,186.992,143.682
0.380,43.852,3.190,3.241,228.988,186.966,143.723
0.381,43.938,3.195,3.230,229.053,186.940,143.772
0.382,44.036,3.200,3.218,229.131,186.915,143.827
0.383,44.147,3.203,3.210,229.220,186.891,143.887
0.384,44.269,3.207,3.206,229.322,186.869,143.951
0.385,44.402,3.212,3.207,229.436,186.850,144.018
0.386,44.545,3.216,3.212,229.561,186.835,144.084
0.387,44.697,3.222,3.222,229.697,186.823,144.150
0.388,44.857,3.227,3.235,229.845,186.817,144.214
0.389,45.025,3.233,3.250,230.001,186.815,144.274
0.390,45.197,3.240,3.267,230.163,186.818,144.331
0.392,45.368,3.247,3.285,230.326,186.824,144.385
0.393,45.537,3.254,3.304,230.487,186.832,144.434
0.394,45.698,3.262,3.321,230.641,186.843,144.479
0.395,45.848,3.271,3.338,230.785,186.854,144.520
0.396,45.984,3.280,3.353,230.916,186.866,144.556
0.397,46.102,3.289,3.367,231.029,186.877,144.588
0.398,46.197,3.298,3.379,231.120,186.887,144.614
0.399,46.268,3.307,3.389,231.187,186.895,144.634
0.400,46.316,3.317,3.398,231.232,186.902,144.650
0.401,46.344,3.326,3.404,231.258,186.906,144.660
0.402,46.357,3.335,3.408,231.269,186.909,144.666
0.403,46.360,3.343,3.410,231.268,186.911,144.669
0.404,46.369,3.351,3.410,231.259,186.911,144.667
0.405,46.383,3.359,3.408,231.246,186.909,144.663
0.406,46.400,3.366,3.404,231.232,186.906,144.655
0.407,46.416,3.371,3.398,231.220,186.902,144.645
0.408,46.430,3.376,3.392,231.214,186.897,144.633
0.410,46.445,3.380,3.387,231.217,186.892,144.619
0.411,46.464,3.382,3.382,231.230,186.889,144.606
0.412,46.492,3.383,3.378,231.255,186.889,144.593
0.413,46.532,3.382,3.376,231.293,186.896,144.582
0.414,46.587,3.379,3.376,231.345,186.911,144.574
0.415,46.660,3.374,3.380,231.413,186.936,144.571
0.416,46.753,3.368,3.386,231.498,186.974,144.574
0.417,46.870,3.360,3.394,231.602,187.027,144.583
0.418,47.013,3.351,3.403,231.725,187.097,144.601
0.419,47.184,3.343,3.413,231.869,187.185,144.628
0.420,47.379,3.334,3.422,232.031,187.290,144.663
0.421,47.589,3.326,3.429,232.202,187.404,144.704
0.422,47.806,3.319,3.434,232.378,187.522,144.748
0.423,48.018,3.313,3.436,232.550,187.638,144.794
0.424,48.217,3.310,3.435,232.712,187.745,144.839
0.425,48.395,3.308,3.429,232.857,187.838,144.880
0.426,48.540,3.310,3.420,232.978,187.911,144.915
0.428,48.646,3.314,3.410,233.069,187.957,144.942
0.429,48.703,3.320,3.399,233.122,187.971,144.958
0.430,48.729,3.329,3.390,233.134,187.949,144.963
0.431,48.781,3.340,3.383,233.114,187.901,144.958
