"T","Distance","Radius","FreeRadius","X","Y","Z"
0.000,0.000,1.077,1.077,215.229,182.770,168.375
0.002,0.363,1.075,1.075,214.983,182.531,168.495
0.003,0.722,1.075,1.075,214.739,182.296,168.613
0.005,1.072,1.079,1.079,214.502,182.066,168.727
0.006,1.408,1.087,1.087,214.274,181.844,168.835
0.008,1.726,1.103,1.103,214.057,181.633,168.935
0.009,2.022,1.126,1.126,213.855,181.436,169.026
0.011,2.291,1.160,1.160,213.672,181.256,169.105
0.012,2.529,1.203,1.203,213.509,181.095,169.170
0.014,2.732,1.252,1.252,213.370,180.956,169.220
0.015,2.895,1.305,1.305,213.258,180.842,169.252
0.017,3.015,1.356,1.356,213.176,180.756,169.265
0.019,3.094,1.405,1.405,213.123,180.697,169.260
0.020,3.142,1.446,1.446,213.096,180.661,169.243
0.022,3.171,1.478,1.478,213.090,180.643,169.221
0.023,3.195,1.502,1.502,213.100,180.638,169.201
0.025,3.221,1.519,1.519,213.122,180.642,169.188
0.026,3.251,1.532,1.532,213.152,180.650,169.189
0.028,3.290,1.543,1.543,213.184,180.657,169.212
0.029,3.348,1.554,1.554,213.214,180.658,169.261
0.031,3.436,1.567,1.567,213.237,180.650,169.345
0.032,3.562,1.586,1.586,213.250,180.626,169.469
0.034,3.737,1.611,1.611,213.247,180.583,169.638
0.035,3.958,1.648,1.648,213.230,180.522,169.850
0.037,4.215,1.698,1.698,213.199,180.448,170.094
0.039,4.499,1.764,1.764,213.158,180.363,170.361
0.040,4.799,1.850,1.850,213.109,180.272,170.644
0.042,5.107,1.956,1.956,213.053,180.179,170.932
0.043,5.412,2.078,2.078,212.994,180.088,171.217
0.045,5.705,2.207,2.207,212.932,180.003,171.490
0.046,5.975,2.335,2.335,212.871,179.928,171.742
0.048,6.212,2.451,2.451,212.812,179.867,171.964
0.049,6.408,2.549,2.549,212.758,179.823,172.147
0.051,6.556,2.618,2.618,212.710,179.799,172.285
0.052,6.662,2.657,2.657,212.668,179.793,172.383
0.054,6.736,2.670,2.670,212.632,179.802,172.446
0.056,6.787,2.665,2.665,212.599,179.822,172.480
0.057,6.829,2.650,2.650,212.570,179.850,172.491
0.059,6.872,2.632,2.632,212.545,179.884,172.485
0.060,6.919,2.617,2.617,212.521,179.920,172.467
0.062,6.966,2.613,2.613,212.500,179.955,172.443
0.063,7.011,2.620,2.620,212.479,179.986,172.419
0.065,7.047,2.634,2.634,212.459,180.010,172.401
0.066,7.074,2.654,2.654,212.438,180.024,172.393
0.068,7.097,2.677,2.677,212.416,180.028,172.399
0.069,7.126,2.698,2.698,212.392,180.025,172.414
0.071,7.162,2.717,2.717,212.365,180.017,172.438
0.073,7.205,2.729,2.729,212.335,180.009,172.468
0.074,7.253,2.736,2.736,212.301,180.002,172.501
0.076,7.305,2.738,2.738,212.262,179.999,172.535
0.077,7.360,2.734,2.734,212.218,180.005,172.567
0.079,7.420,2.724,2.724,212.168,180.021,172.596
0.080,7.488,2.709,2.709,212.110,180.050,172.618
0.082,7.569,2.689,2.689,212.045,180.096,172.631
0.083,7.667,2.664,2.664,211.972,180.161,172.634
0.085,7.782,2.634,2.634,211.892,180.243,172.627
0.086,7.911,2.598,2.598,211.806,180.338,172.612
0.088,8.050,2.558,2.558,211.717,180.443,172.591
0.090,8.196,2.511,2.511,211.625,180.554,172.565
0.091,8.345,2.460,2.460,211.534,180.668,172.536
0.093,8.493,2.403,2.403,211.443,180.781,172.506
0.094,8.635,2.344,2.344,211.356,180.889,172.477
0.096,8.769,2.285,2.285,211.273,180.990,172.450
0.097,8.889,2.229,2.229,211.196,181.080,172.427
0.099,8.992,2.178,2.178,211.127,181.154,172.410
0.100,9.076,2.135,2.135,211.066,181.212,172.400
0.102,9.144,2.103,2.103,211.013,181.254,172.395
0.103,9.200,2.082,2.082,210.964,181.282,172.394
0.105,9.247,2.070,2.070,210.920,181.296,172.397
0.106,9.290,2.066,2.066,210.877,181.299,172.401
0.108,9.334,2.068,2.068,210.834,181.292,172.406
0.110,9.382,2.075,2.075,210.789,181.275,172.410
0.111,9.435,2.085,2.085,210.742,181.251,172.413
0.113,9.496,2.097,2.097,210.689,181.221,172.412
0.114,9.565,2.110,2.110,210.630,181.186,172.407
0.116,9.644,2.124,2.124,210.562,181.148,172.397
0.117,9.731,2.139,2.139,210.485,181.108,172.382
0.119,9.828,2.154,2.154,210.398,181.069,172.365
0.120,9.932,2.169,2.169,210.302,181.033,172.348
0.122,10.044,2.185,2.185,210.195,181.003,172.333
0.123,10.164,2.200,2.200,210.077,180.981,172.323
0.125,10.294,2.213,2.213,209.949,180.969,172.320
0.127,10.434,2.225,2.225,209.809,180.970,172.326
0.128,10.588,2.235,2.235,209.657,180.986,172.343
0.130,10.758,2.241,2.241,209.493,181.019,172.374
0.131,10.948,2.244,2.244,209.316,181.072,172.422
0.133,11.161,2.242,2.242,209.128,181.147,172.487
0.134,11.392,2.237,2.237,208.930,181.238,172.567
0.136,11.638,2.230,2.230,208.728,181.342,172.659
0.137,11.891,2.222,2.222,208.525,181.455,172.760
0.139,12.146,2.215,2.215,208.325,181.571,172.867
0.140,12.396,2.210,2.210,208.132,181.685,172.977
0.142,12.634,2.208,2.208,207.951,181.794,173.086
0.144,12.855,2.211,2.211,207.784,181.893,173.193
0.145,13.052,2.218,2.218,207.636,181.976,173.293
0.147,13.218,2.229,2.229,207.512,182.039,173.383
0.148,13.349,2.246,2.246,207.414,182.079,173.461
0.150,13.446,2.267,2.267,207.343,182.093,173.524
0.151,13.517,2.294,2.294,207.295,182.084,173.576
0.153,13.574,2.325,2.325,207.263,182.058,173.615
0.154,13.628,2.360,2.360,207.245,182.016,173.645
0.156,13.686,2.394,2.394,207.233,181.964,173.666
0.157,13.748,2.425,2.425,207.224,181.904,173.680
0.159,13.813,2.450,2.450,207.212,181.840,173.687
0.160,13.880,2.466,2.466,207.192,181.776,173.689
0.162,13.949,2.470,2.470,207.159,181.716,173.688
0.164,14.022,2.461,2.461,207.108,181.663,173.685
0.165,14.107,2.442,2.442,207.035,181.620,173.681
0.167,14.206,2.418,2.418,206.941,181.589,173.676
0.168,14.319,2.391,2.391,206.830,181.567,173.670
0.170,14.444,2.365,2.365,206.706,181.555,173.662
0.171,14.577,2.345,2.345,206.574,181.550,173.652
0.173,14.716,2.332,2.332,206.436,181.553,173.640
0.174,14.855,2.328,2.328,206.297,181.562,173.626
0.176,14.992,2.331,2.331,206.162,181.576,173.609
0.177,15.123,2.338,2.338,206.034,181.594,173.588
0.179,15.245,2.348,2.348,205.917,181.616,173.564
0.181,15.353,2.360,2.360,205.815,181.640,173.537
0.182,15.446,2.371,2.371,205.731,181.666,173.505
0.184,15.531,2.379,2.379,205.660,181.694,173.470
0.185,15.610,2.383,2.383,205.598,181.725,173.431
0.187,15.690,2.381,2.381,205.539,181.760,173.389
0.188,15.773,2.370,2.370,205.481,181.800,173.345
0.190,15.864,2.349,2.349,205.418,181.846,173.299
0.191,15.965,2.316,2.316,205.345,181.897,173.251
0.193,16.081,2.268,2.268,205.257,181.956,173.202
0.194,16.216,2.212,2.212,205.152,182.022,173.152
0.196,16.374,2.154,2.154,205.022,182.096,173.101
0.198,16.559,2.103,2.103,204.865,182.180,173.050
0.199,16.770,2.068,2.068,204.682,182.272,173.001
0.201,17.000,2.057,2.057,204.478,182.368,172.956
0.202,17.242,2.080,2.080,204.259,182.466,172.919
0.204,17.489,2.139,2.139,204.033,182.562,172.893
0.205,17.735,2.224,2.224,203.805,182.653,172.880
0.207,17.973,2.322,2.322,203.582,182.737,172.884
0.208,18.199,2.421,2.421,203.370,182.809,172.909
0.210,18.407,2.506,2.506,203.175,182.867,172.956
0.211,18.598,2.565,2.565,203.004,182.907,173.029
0.213,18.774,2.586,2.586,202.863,182.927,173.132
0.215,18.944,2.568,2.568,202.756,182.924,173.265
0.216,19.122,2.522,2.522,202.683,182.900,173.425
0.218,19.311,2.459,2.459,202.639,182.858,173.605
0.219,19.512,2.389,2.389,202.620,182.803,173.797
0.221,19.721,2.325,2.325,202.622,182.737,173.995
0.222,19.932,2.276,2.276,202.642,182.664,174.192
0.224,20.139,2.252,2.252,202.673,182.588,174.382
0.225,20.334,2.250,2.250,202.714,182.511,174.557
0.227,20.511,2.264,2.264,202.760,182.439,174.712
0.228,20.661,2.291,2.291,202.806,182.373,174.838
0.230,20.776,2.324,2.324,202.849,182.318,174.930
0.231,20.855,2.359,2.359,202.885,182.275,174.985
0.233,20.904,2.391,2.391,202.915,182.244,175.010
0.235,20.934,2.418,2.418,202.936,182.224,175.012
0.236,20.957,2.437,2.437,202.950,182.212,174.998
0.238,20.980,2.450,2.450,202.955,182.208,174.976
0.239,21.004,2.454,2.454,202.950,182.210,174.952
0.241,21.029,2.451,2.451,202.935,182.217,174.935
0.242,21.057,2.439,2.439,202.910,182.229,174.930
0.244,21.099,2.417,2.417,202.873,182.243,174.947
0.245,21.167,2.388,2.388,202.824,182.258,174.991
0.247,21.267,2.355,2.355,202.764,182.274,175.070
0.248,21.402,2.318,2.318,202.692,182.289,175.182
0.250,21.564,2.282,2.282,202.612,182.304,175.323
0.252,21.749,2.247,2.247,202.525,182.318,175.485
0.253,21.949,2.217,2.217,202.435,182.331,175.663
0.255,22.159,2.192,2.192,202.343,182.344,175.852
0.256,22.372,2.173,2.173,202.253,182.356,176.045
0.258,22.583,2.158,2.158,202.166,182.366,176.236
0.259,22.784,2.148,2.148,202.085,182.376,176.420
0.261,22.969,2.143,2.143,202.012,182.384,176.590
0.262,23.132,2.142,2.142,201.950,182.391,176.741
0.264,23.269,2.144,2.144,201.901,182.397,176.868
0.265,23.380,2.150,2.150,201.863,182.401,176.972
0.267,23.469,2.158,2.158,201.834,182.404,177.056
0.269,23.537,2.166,2.166,201.814,182.406,177.122
0.270,23.589,2.176,2.176,201.800,182.407,177.172
0.272,23.626,2.185,2.185,201.791,182.407,177.208
0.273,23.651,2.192,2.192,201.784,182.405,177.232
0.275,23.667,2.198,2.198,201.780,182.403,177.247
0.276,23.677,2.201,2.201,201.774,182.400,177.255
0.278,23.686,2.202,2.202,201.767,182.397,177.259
0.279,23.698,2.200,2.200,201.756,182.393,177.259
0.281,23.714,2.195,2.195,201.740,182.388,177.259
0.282,23.737,2.187,2.187,201.719,182.380,177.257
0.284,23.767,2.176,2.176,201.691,182.370,177.255
0.285,23.804,2.161,2.161,201.656,182.356,177.253
0.287,23.851,2.142,2.142,201.614,182.338,177.250
0.289,23.907,2.118,2.118,201.563,182.313,177.248
0.290,23.975,2.090,2.090,201.503,182.282,177.246
0.292,24.055,2.057,2.057,201.433,182.243,177.245
0.293,24.148,2.019,2.019,201.353,182.195,177.245
0.295,24.256,1.976,1.976,201.261,182.138,177.247
0.296,24.380,1.930,1.930,201.158,182.070,177.250
0.298,24.517,1.883,1.883,201.045,181.992,177.254
0.299,24.665,1.837,1.837,200.924,181.908,177.260
0.301,24.821,1.794,1.794,200.797,181.818,177.268
0.302,24.982,1.755,1.755,200.666,181.725,177.276
0.304,25.145,1.723,1.723,200.533,181.630,177.287
0.306,25.308,1.698,1.698,200.401,181.535,177.298
0.307,25.467,1.678,1.678,200.272,181.443,177.311
0.309,25.620,1.663,1.663,200.149,181.355,177.325
0.310,25.763,1.651,1.651,200.032,181.273,177.340
0.312,25.894,1.641,1.641,199.925,181.200,177.356
0.313,26.011,1.632,1.632,199.828,181.136,177.373
0.315,26.116,1.624,1.624,199.741,181.080,177.391
0.316,26.211,1.615,1.615,199.663,181.030,177.410
0.318,26.297,1.608,1.608,199.591,180.987,177.430
0.319,26.376,1.602,1.602,199.526,180.947,177.452
0.321,26.452,1.598,1.598,199.465,180.909,177.475
0.323,26.524,1.597,1.597,199.407,180.873,177.499
0.324,26.596,1.598,1.598,199.351,180.836,177.524
0.326,26.668,1.602,1.602,199.295,180.798,177.551
0.327,26.744,1.609,1.609,199.239,180.757,177.579
0.329,26.824,1.618,1.618,199.180,180.711,177.609
0.330,26.908,1.630,1.630,199.120,180.660,177.639
0.332,26.995,1.643,1.643,199.059,180.607,177.670
0.333,27.083,1.658,1.658,198.997,180.552,177.701
0.335,27.171,1.674,1.674,198.936,180.496,177.731
0.336,27.256,1.691,1.691,198.878,180.441,177.760
0.338,27.337,1.707,1.707,198.822,180.389,177.786
0.340,27.412,1.723,1.723,198.770,180.340,177.810
0.341,27.480,1.736,1.736,198.723,180.296,177.830
0.343,27.538,1.746,1.746,198.682,180.258,177.846
0.344,27.584,1.752,1.752,198.648,180.228,177.857
0.346,27.619,1.754,1.754,198.622,180.206,177.862
0.347,27.644,1.753,1.753,198.601,180.192,177.862
0.349,27.664,1.749,1.749,198.585,180.181,177.856
0.350,27.683,1.742,1.742,198.572,180.174,177.845
0.352,27.707,1.734,1.734,198.558,180.166,177.827
0.353,27.736,1.724,1.724,198.543,180.156,177.804
0.355,27.774,1.713,1.713,198.524,180.141,177.774
0.356,27.822,1.702,1.702,198.500,180.120,177.739
0.358,27.883,1.691,1.691,198.468,180.089,177.697
0.360,27.960,1.682,1.682,198.427,180.046,177.649
0.361,28.055,1.674,1.674,198.374,179.990,177.594
0.363,28.168,1.669,1.669,198.309,179.920,177.534
0.364,28.295,1.667,1.667,198.235,179.838,177.469
0.366,28.433,1.668,1.668,198.155,179.748,177.402
0.367,28.575,1.670,1.670,198.073,179.654,177.335
0.369,28.718,1.674,1.674,197.990,179.558,177.270
0.370,28.856,1.676,1.676,197.911,179.463,177.208
0.372,28.984,1.677,1.677,197.838,179.373,177.151
0.373,29.099,1.675,1.675,197.774,179.292,177.101
0.375,29.195,1.669,1.669,197.723,179.222,177.060
0.377,29.268,1.659,1.659,197.687,179.166,177.031
0.378,29.313,1.647,1.647,197.670,179.128,177.013
0.380,29.335,1.636,1.636,197.668,179.107,177.007
0.381,29.349,1.626,1.626,197.679,179.099,177.008
0.383,29.368,1.619,1.619,197.696,179.101,177.015
0.384,29.392,1.616,1.616,197.717,179.110,177.024
0.386,29.416,1.619,1.619,197.736,179.123,177.032
0.387,29.434,1.625,1.625,197.748,179.136,177.035
0.389,29.444,1.634,1.634,197.750,179.145,177.031
0.390,29.465,1.642,1.642,197.736,179.148,177.016
0.392,29.509,1.649,1.649,197.702,179.142,176.988
0.394,29.585,1.652,1.652,197.644,179.122,176.944
0.395,29.697,1.650,1.650,197.559,179.088,176.880
0.397,29.841,1.645,1.645,197.449,179.039,176.801
0.398,30.012,1.640,1.640,197.318,178.979,176.708
0.400,30.204,1.639,1.639,197.172,178.911,176.605
0.401,30.411,1.645,1.645,197.013,178.835,176.496
0.403,30.628,1.661,1.661,196.846,178.755,176.382
0.404,30.849,1.692,1.692,196.676,178.673,176.268
0.406,31.068,1.737,1.737,196.505,178.591,176.156
0.407,31.280,1.794,1.794,196.340,178.512,176.050
0.409,31.480,1.860,1.860,196.182,178.437,175.953
0.410,31.661,1.929,1.929,196.037,178.370,175.868
0.412,31.821,1.999,1.999,195.907,178.311,175.796
0.414,31.960,2.064,2.064,195.791,178.260,175.737
0.415,32.081,2.122,2.122,195.689,178.217,175.690
0.417,32.183,2.171,2.171,195.601,178.181,175.654
0.418,32.267,2.211,2.211,195.526,178.152,175.629
0.420,32.336,2.242,2.242,195.463,178.130,175.614
0.421,32.389,2.267,2.267,195.412,178.114,175.608
0.423,32.429,2.283,2.283,195.373,178.103,175.611
0.424,32.459,2.294,2.294,195.346,178.098,175.622
0.426,32.484,2.297,2.297,195.329,178.099,175.640
0.427,32.510,2.296,2.296,195.322,178.104,175.665
0.429,32.539,2.291,2.291,195.324,178.113,175.692
0.431,32.566,2.283,2.283,195.330,178.125,175.716
0.432,32.590,2.273,2.273,195.340,178.139,175.733
0.434,32.608,2.263,2.263,195.348,178.154,175.737
0.435,32.629,2.253,2.253,195.354,178.169,175.724
0.437,32.667,2.246,2.246,195.353,178.183,175.688
0.438,32.733,2.246,2.246,195.344,178.195,175.624
0.440,32.832,2.256,2.256,195.322,178.204,175.528
0.441,32.971,2.278,2.278,195.287,178.210,175.394
0.443,33.155,2.317,2.317,195.234,178.210,175.217
0.444,33.387,2.376,2.376,195.163,178.205,174.997
0.446,33.657,2.457,2.457,195.077,178.195,174.740
0.448,33.956,2.554,2.554,194.980,178.180,174.458
0.449,34.273,2.662,2.662,194.878,178.160,174.159
0.451,34.599,2.774,2.774,194.773,178.135,173.852
0.452,34.922,2.883,2.883,194.670,178.106,173.547
0.454,35.233,2.984,2.984,194.573,178.073,173.253
0.455,35.521,3.070,3.070,194.487,178.037,172.980
0.457,35.777,3.139,3.139,194.416,177.996,172.737
0.458,35.992,3.194,3.194,194.363,177.953,172.534
0.460,36.156,3.239,3.239,194.333,177.907,172.379
0.461,36.274,3.276,3.276,194.324,177.858,172.273
0.463,36.357,3.310,3.310,194.329,177.805,172.209
0.465,36.423,3.343,3.343,194.342,177.748,172.179
0.466,36.486,3.378,3.378,194.356,177.686,172.176
0.468,36.556,3.414,3.414,194.365,177.619,172.192
0.469,36.635,3.448,3.448,194.362,177.546,172.221
0.471,36.724,3.479,3.479,194.339,177.467,172.256
0.472,36.828,3.503,3.503,194.291,177.380,172.287
0.474,36.953,3.519,3.519,194.211,177.287,172.310
0.475,37.110,3.524,3.524,194.092,177.185,172.315
0.477,37.307,3.519,3.519,193.929,177.075,172.298
0.478,37.542,3.508,3.508,193.729,176.959,172.260
0.480,37.807,3.497,3.497,193.498,176.840,172.205
0.481,38.094,3.489,3.489,193.246,176.721,172.137
0.483,38.394,3.491,3.491,192.980,176.605,172.061
0.485,38.697,3.506,3.506,192.710,176.494,171.980
0.486,38.995,3.539,3.539,192.443,176.391,171.898
0.488,39.277,3.588,3.588,192.187,176.299,171.820
0.489,39.535,3.648,3.648,191.952,176.222,171.749
0.491,39.758,3.714,3.714,191.745,176.161,171.689
0.492,39.939,3.781,3.781,191.575,176.121,171.645
0.494,40.074,3.845,3.845,191.444,176.099,171.619
0.495,40.172,3.901,3.901,191.347,176.092,171.609
0.497,40.241,3.945,3.945,191.278,176.092,171.614
0.498,40.293,3.976,3.976,191.230,176.095,171.633
0.500,40.338,3.994,3.994,191.197,176.095,171.663
0.502,40.387,3.996,3.996,191.172,176.084,171.704
0.503,40.448,3.983,3.983,191.148,176.059,171.754
0.505,40.527,3.954,3.954,191.120,176.012,171.812
0.506,40.632,3.907,3.907,191.082,175.938,171.875
0.508,40.771,3.847,3.847,191.025,175.831,171.944
0.509,40.952,3.781,3.781,190.946,175.685,172.015
0.511,41.172,3.714,3.714,190.844,175.504,172.089
0.512,41.427,3.655,3.655,190.724,175.292,172.163
0.514,41.708,3.608,3.608,190.592,175.055,172.237
0.515,42.007,3.581,3.581,190.452,174.801,172.310
0.517,42.317,3.577,3.577,190.308,174.535,172.380
0.519,42.631,3.591,3.591,190.167,174.263,172.447
0.520,42.940,3.618,3.618,190.032,173.992,172.510
0.522,43.237,3.652,3.652,189.909,173.728,172.567
0.523,43.515,3.688,3.688,189.802,173.477,172.618
0.525,43.767,3.719,3.719,189.716,173.244,172.661
0.526,43.987,3.741,3.741,189.654,173.035,172.695
0.528,44.178,3.752,3.752,189.616,172.850,172.722
0.529,44.344,3.756,3.756,189.597,172.686,172.740
0.531,44.488,3.756,3.755,189.594,172.543,172.751
0.532,44.612,3.753,3.752,189.605,172.419,172.755
0.534,44.721,3.751,3.750,189.627,172.312,172.752
0.535,44.817,3.752,3.752,189.657,172.222,172.743
0.537,44.902,3.758,3.759,189.691,172.146,172.729
0.539,44.977,3.769,3.771,189.728,172.083,172.708
0.540,45.044,3.783,3.786,189.763,172.032,172.683
0.542,45.103,3.799,3.803,189.793,171.991,172.653
0.543,45.156,3.817,3.820,189.818,171.959,172.619
0.545,45.205,3.835,3.837,189.836,171.930,172.584
0.546,45.250,3.852,3.850,189.846,171.903,172.549
0.548,45.294,3.867,3.860,189.846,171.873,172.517
0.549,45.340,3.877,3.867,189.838,171.837,172.489
0.551,45.394,3.881,3.869,189.818,171.792,172.469
0.552,45.461,3.877,3.866,189.787,171.734,172.457
0.554,45.547,3.862,3.858,189.744,171.659,172.455
0.556,45.658,3.835,3.844,189.687,171.564,172.467
0.557,45.799,3.795,3.825,189.616,171.446,172.494
0.559,45.972,3.745,3.801,189.531,171.302,172.537
0.560,46.174,3.692,3.775,189.433,171.135,172.595
0.562,46.398,3.638,3.748,189.326,170.950,172.665
0.563,46.637,3.591,3.723,189.213,170.754,172.741
0.565,46.884,3.554,3.702,189.098,170.552,172.823
0.566,47.130,3.532,3.687,188.983,170.349,172.905
0.568,47.370,3.525,3.677,188.873,170.152,172.986
0.569,47.595,3.531,3.672,188.771,169.966,173.060
0.571,47.799,3.544,3.672,188.679,169.796,173.125
0.573,47.974,3.560,3.675,188.602,169.648,173.178
0.574,48.113,3.575,3.681,188.542,169.528,173.214
0.576,48.212,3.585,3.688,188.502,169.439,173.234
0.577,48.279,3.585,3.695,188.478,169.378,173.239
0.579,48.319,3.578,3.702,188.468,169.339,173.233
0.580,48.342,3.566,3.707,188.470,169.320,173.221
0.582,48.360,3.551,3.711,188.480,169.316,173.205
0.583,48.383,3.537,3.711,188.495,169.323,173.190
0.585,48.408,3.527,3.708,188.512,169.337,173.180
0.586,48.432,3.523,3.699,188.529,169.354,173.177
0.588,48.455,3.525,3.686,188.543,169.370,173.185
0.590,48.482,3.532,3.670,188.551,169.380,173.209
0.591,48.525,3.541,3.652,188.550,169.381,173.252
0.593,48.588,3.550,3.634,188.539,169.371,173.314
0.594,48.672,3.555,3.618,188.517,169.350,173.392
0.596,48.775,3.555,3.606,188.487,169.317,173.485
0.597,48.894,3.547,3.597,188.447,169.274,173.588
0.599,49.029,3.531,3.592,188.398,169.219,173.701
0.600,49.177,3.510,3.588,188.341,169.153,173.820
0.602,49.336,3.484,3.582,188.275,169.075,173.944
0.603,49.506,3.455,3.573,188.201,168.987,174.068
0.605,49.685,3.424,3.557,188.119,168.887,174.191
0.606,49.871,3.394,3.533,188.030,168.775,174.311
0.608,50.064,3.365,3.500,187.933,168.653,174.425
0.610,50.261,3.337,3.461,187.831,168.522,174.532
0.611,50.461,3.312,3.419,187.726,168.385,174.631
0.613,50.661,3.291,3.378,187.618,168.244,174.724
0.614,50.858,3.273,3.339,187.511,168.102,174.808
0.616,51.049,3.261,3.308,187.405,167.962,174.883
0.617,51.231,3.253,3.285,187.304,167.826,174.950
0.619,51.402,3.250,3.272,187.207,167.697,175.007
0.620,51.558,3.250,3.265,187.119,167.578,175.054
0.622,51.696,3.252,3.262,187.039,167.471,175.092
0.623,51.814,3.253,3.261,186.971,167.379,175.118
0.625,51.910,3.253,3.259,186.915,167.302,175.134
0.627,51.987,3.249,3.253,186.869,167.240,175.141
0.628,52.047,3.242,3.242,186.834,167.191,175.140
