"T","Distance","Radius","FreeRadius","X","Y","Z"
0.000,0.000,1.199,1.199,319.315,298.618,303.102
0.001,0.123,1.229,1.229,319.195,298.643,303.091
0.002,0.245,1.259,1.259,319.076,298.669,303.081
0.003,0.364,1.287,1.287,318.960,298.693,303.071
0.004,0.479,1.313,1.313,318.848,298.716,303.063
0.006,0.588,1.336,1.336,318.741,298.737,303.056
0.007,0.690,1.357,1.357,318.641,298.757,303.050
0.008,0.784,1.373,1.373,318.549,298.774,303.047
0.009,0.868,1.385,1.385,318.466,298.789,303.046
0.010,0.942,1.392,1.392,318.393,298.801,303.048
0.011,1.003,1.394,1.394,318.333,298.809,303.053
0.012,1.051,1.391,1.391,318.286,298.813,303.062
0.013,1.087,1.385,1.385,318.252,298.813,303.074
0.015,1.112,1.377,1.377,318.230,298.811,303.087
0.016,1.131,1.369,1.369,318.219,298.807,303.101
0.017,1.144,1.362,1.362,318.217,298.801,303.113
0.018,1.156,1.357,1.357,318.222,298.796,303.123
0.019,1.168,1.356,1.356,318.232,298.792,303.127
0.020,1.183,1.359,1.359,318.247,298.789,303.126
0.021,1.202,1.369,1.369,318.263,298.790,303.117
0.022,1.227,1.383,1.383,318.280,298.795,303.098
0.024,1.262,1.401,1.401,318.296,298.804,303.068
0.025,1.309,1.420,1.420,318.310,298.819,303.026
0.026,1.367,1.439,1.439,318.319,298.840,302.973
0.027,1.432,1.457,1.457,318.324,298.866,302.913
0.028,1.502,1.473,1.473,318.324,298.897,302.851
0.029,1.572,1.484,1.484,318.317,298.930,302.790
0.030,1.639,1.489,1.489,318.304,298.966,302.735
0.031,1.701,1.487,1.487,318.283,299.004,302.690
0.033,1.758,1.480,1.480,318.254,299.042,302.659
0.034,1.814,1.468,1.468,318.216,299.081,302.647
0.035,1.875,1.454,1.454,318.168,299.118,302.658
0.036,1.953,1.438,1.438,318.109,299.154,302.696
0.037,2.056,1.423,1.423,318.040,299.187,302.764
0.038,2.184,1.409,1.409,317.961,299.218,302.860
0.039,2.333,1.399,1.399,317.875,299.245,302.978
0.040,2.497,1.393,1.393,317.784,299.271,303.113
0.042,2.672,1.393,1.393,317.690,299.293,303.259
0.043,2.852,1.399,1.399,317.596,299.314,303.410
0.044,3.030,1.408,1.408,317.503,299.332,303.561
0.045,3.202,1.421,1.421,317.414,299.348,303.707
0.046,3.360,1.436,1.436,317.332,299.362,303.842
0.047,3.500,1.451,1.451,317.258,299.374,303.960
0.048,3.615,1.466,1.466,317.195,299.384,304.056
0.049,3.703,1.480,1.480,317.144,299.393,304.126
0.051,3.766,1.491,1.491,317.103,299.401,304.174
0.052,3.811,1.499,1.499,317.072,299.409,304.206
0.053,3.844,1.505,1.505,317.047,299.418,304.225
0.054,3.870,1.510,1.510,317.028,299.429,304.238
0.055,3.894,1.516,1.516,317.011,299.443,304.250
0.056,3.922,1.524,1.524,316.996,299.461,304.264
0.057,3.959,1.537,1.537,316.979,299.483,304.288
0.058,4.009,1.555,1.555,316.959,299.512,304.324
0.059,4.079,1.579,1.579,316.935,299.547,304.380
0.061,4.175,1.612,1.612,316.904,299.589,304.460
0.062,4.297,1.655,1.655,316.865,299.640,304.564
0.063,4.441,1.705,1.705,316.819,299.696,304.689
0.064,4.603,1.761,1.761,316.769,299.757,304.829
0.065,4.775,1.820,1.820,316.713,299.820,304.980
0.066,4.954,1.881,1.881,316.655,299.885,305.136
0.067,5.133,1.940,1.940,316.595,299.950,305.292
0.068,5.307,1.996,1.996,316.533,300.012,305.443
0.070,5.472,2.046,2.046,316.472,300.071,305.583
0.071,5.621,2.089,2.089,316.413,300.125,305.709
0.072,5.749,2.122,2.122,316.356,300.172,305.814
0.073,5.852,2.148,2.148,316.303,300.211,305.894
0.074,5.932,2.167,2.167,316.255,300.242,305.950
0.075,5.994,2.183,2.183,316.213,300.267,305.987
0.076,6.041,2.196,2.196,316.178,300.288,306.010
0.077,6.078,2.209,2.209,316.151,300.308,306.026
0.079,6.107,2.224,2.224,316.133,300.327,306.038
0.080,6.135,2.243,2.243,316.125,300.349,306.054
0.081,6.170,2.268,2.268,316.128,300.375,306.078
0.082,6.222,2.300,2.300,316.144,300.407,306.116
0.083,6.298,2.338,2.338,316.172,300.447,306.173
0.084,6.403,2.381,2.381,316.215,300.498,306.254
0.085,6.542,2.427,2.427,316.272,300.560,306.364
0.086,6.711,2.474,2.474,316.343,300.633,306.501
0.088,6.905,2.522,2.522,316.423,300.713,306.657
0.089,7.114,2.569,2.569,316.510,300.798,306.828
0.090,7.334,2.613,2.613,316.602,300.886,307.007
0.091,7.556,2.652,2.652,316.695,300.973,307.189
0.092,7.774,2.686,2.686,316.786,301.058,307.367
0.093,7.981,2.715,2.715,316.873,301.137,307.538
0.094,8.169,2.739,2.739,316.952,301.208,307.693
0.095,8.332,2.759,2.759,317.021,301.268,307.828
0.097,8.463,2.776,2.776,317.077,301.314,307.937
0.098,8.557,2.789,2.789,317.118,301.346,308.016
0.099,8.619,2.800,2.800,317.145,301.365,308.069
0.100,8.654,2.810,2.810,317.161,301.373,308.098
0.101,8.667,2.818,2.818,317.168,301.373,308.109
0.102,8.674,2.825,2.825,317.168,301.367,308.105
0.103,8.693,2.831,2.831,317.163,301.357,308.091
0.104,8.718,2.837,2.837,317.155,301.346,308.069
0.105,8.745,2.843,2.843,317.147,301.336,308.045
0.107,8.770,2.849,2.849,317.141,301.330,308.022
0.108,8.788,2.855,2.855,317.138,301.330,308.004
0.109,8.800,2.860,2.860,317.142,301.338,307.996
0.110,8.820,2.866,2.866,317.152,301.355,307.998
0.111,8.851,2.873,2.873,317.168,301.379,308.010
0.112,8.893,2.879,2.879,317.188,301.410,308.029
0.113,8.942,2.886,2.886,317.212,301.446,308.053
0.114,8.997,2.894,2.894,317.238,301.485,308.082
0.116,9.055,2.901,2.901,317.265,301.526,308.113
0.117,9.114,2.907,2.907,317.291,301.567,308.145
0.118,9.170,2.913,2.913,317.317,301.607,308.176
0.119,9.222,2.919,2.919,317.339,301.644,308.204
0.120,9.266,2.923,2.923,317.358,301.677,308.227
0.121,9.302,2.926,2.926,317.372,301.705,308.244
0.122,9.328,2.928,2.928,317.382,301.726,308.255
0.123,9.346,2.928,2.928,317.387,301.743,308.261
0.125,9.358,2.927,2.927,317.390,301.754,308.264
0.126,9.365,2.926,2.926,317.391,301.761,308.264
0.127,9.367,2.923,2.923,317.391,301.763,308.264
0.128,9.368,2.920,2.920,317.391,301.761,308.265
0.129,9.374,2.917,2.917,317.392,301.756,308.267
0.130,9.385,2.914,2.914,317.395,301.748,308.273
0.131,9.401,2.911,2.911,317.401,301.737,308.283
0.132,9.424,2.907,2.907,317.411,301.724,308.300
0.134,9.455,2.905,2.905,317.426,301.709,308.323
0.135,9.494,2.903,2.903,317.445,301.693,308.353
0.136,9.540,2.901,2.901,317.468,301.677,308.389
0.137,9.590,2.900,2.900,317.493,301.661,308.429
0.138,9.645,2.901,2.901,317.520,301.646,308.474
0.139,9.702,2.902,2.902,317.548,301.632,308.523
0.140,9.761,2.905,2.905,317.576,301.622,308.573
0.141,9.821,2.909,2.909,317.604,301.615,308.626
0.143,9.881,2.915,2.915,317.630,301.612,308.679
0.144,9.939,2.923,2.923,317.654,301.613,308.733
0.145,9.996,2.931,2.931,317.676,301.621,308.785
0.146,10.053,2.940,2.940,317.694,301.635,308.837
0.147,10.109,2.949,2.949,317.709,301.654,308.887
0.148,10.169,2.958,2.958,317.724,301.681,308.939
0.149,10.232,2.967,2.967,317.739,301.713,308.991
0.150,10.301,2.975,2.975,317.755,301.752,309.046
0.152,10.377,2.983,2.983,317.773,301.798,309.103
0.153,10.460,2.989,2.989,317.795,301.849,309.164
0.154,10.551,2.995,2.995,317.821,301.908,309.229
0.155,10.652,3.002,3.002,317.853,301.972,309.300
0.156,10.764,3.009,3.009,317.892,302.043,309.377
0.157,10.888,3.018,3.018,317.940,302.121,309.462
0.158,11.023,3.030,3.030,317.994,302.204,309.552
0.159,11.166,3.045,3.045,318.056,302.292,309.648
0.160,11.314,3.064,3.064,318.121,302.381,309.746
0.162,11.465,3.088,3.088,318.190,302.471,309.846
0.163,11.615,3.117,3.117,318.260,302.560,309.945
0.164,11.762,3.151,3.151,318.330,302.645,310.041
0.165,11.902,3.186,3.186,318.398,302.726,310.133
0.166,12.032,3.222,3.222,318.462,302.800,310.218
0.167,12.149,3.258,3.258,318.521,302.866,310.296
0.168,12.251,3.290,3.290,318.573,302.922,310.363
0.169,12.335,3.319,3.319,318.617,302.967,310.419
0.171,12.400,3.342,3.342,318.652,303.000,310.462
0.172,12.448,3.357,3.357,318.678,303.023,310.495
0.173,12.480,3.364,3.364,318.696,303.038,310.518
0.174,12.499,3.363,3.363,318.706,303.045,310.531
0.175,12.504,3.356,3.356,318.709,303.047,310.536
0.176,12.510,3.346,3.346,318.704,303.044,310.533
0.177,12.526,3.333,3.333,318.693,303.038,310.523
0.178,12.552,3.319,3.319,318.675,303.031,310.506
0.180,12.585,3.307,3.307,318.651,303.023,310.485
0.181,12.625,3.297,3.297,318.621,303.017,310.459
0.182,12.671,3.292,3.292,318.586,303.012,310.430
0.183,12.719,3.292,3.292,318.549,303.010,310.399
0.184,12.764,3.297,3.297,318.514,303.008,310.371
0.185,12.802,3.305,3.305,318.483,303.007,310.349
0.186,12.829,3.314,3.314,318.460,303.006,310.334
0.187,12.840,3.323,3.323,318.450,303.004,310.330
0.189,12.853,3.331,3.331,318.455,303.000,310.341
0.190,12.890,3.336,3.336,318.479,302.993,310.369
0.191,12.957,3.336,3.336,318.525,302.984,310.416
0.192,13.059,3.330,3.330,318.597,302.970,310.487
0.193,13.200,3.317,3.317,318.699,302.953,310.583
0.194,13.382,3.298,3.298,318.831,302.930,310.707
0.195,13.598,3.275,3.275,318.988,302.904,310.852
0.196,13.840,3.248,3.248,319.164,302.875,311.016
0.198,14.102,3.220,3.220,319.355,302.844,311.193
0.199,14.376,3.192,3.192,319.554,302.812,311.379
0.200,14.656,3.166,3.166,319.756,302.781,311.569
0.201,14.933,3.144,3.144,319.955,302.750,311.759
0.202,15.200,3.126,3.126,320.147,302.722,311.944
0.203,15.451,3.114,3.114,320.324,302.697,312.119
0.204,15.678,3.108,3.108,320.483,302.676,312.280
0.205,15.874,3.107,3.107,320.616,302.660,312.423
0.207,16.038,3.112,3.112,320.725,302.648,312.545
0.208,16.175,3.120,3.120,320.813,302.639,312.649
0.209,16.288,3.133,3.133,320.886,302.630,312.737
0.210,16.383,3.149,3.149,320.947,302.619,312.808
0.211,16.465,3.168,3.168,321.002,302.604,312.866
0.212,16.538,3.190,3.190,321.055,302.583,312.912
0.213,16.611,3.213,3.213,321.111,302.553,312.947
0.214,16.691,3.238,3.238,321.176,302.513,312.973
0.215,16.786,3.265,3.265,321.252,302.460,312.992
0.217,16.902,3.293,3.293,321.346,302.392,313.005
0.218,17.045,3.322,3.322,321.461,302.308,313.014
0.219,17.213,3.353,3.353,321.595,302.208,313.021
0.220,17.400,3.383,3.383,321.744,302.095,313.031
0.221,17.601,3.415,3.415,321.902,301.972,313.047
0.222,17.810,3.446,3.446,322.065,301.842,313.072
0.223,18.025,3.478,3.478,322.227,301.708,313.110
0.224,18.240,3.510,3.510,322.385,301.572,313.165
0.226,18.454,3.543,3.543,322.533,301.437,313.239
0.227,18.665,3.576,3.576,322.666,301.305,313.337
0.228,18.874,3.611,3.611,322.779,301.181,313.462
0.229,19.087,3.647,3.647,322.868,301.065,313.617
0.230,19.310,3.684,3.684,322.929,300.960,313.804
0.231,19.548,3.724,3.724,322.965,300.865,314.019
0.232,19.799,3.765,3.765,322.980,300.777,314.254
0.233,20.062,3.808,3.808,322.977,300.694,314.503
0.235,20.332,3.854,3.854,322.960,300.614,314.760
0.236,20.603,3.900,3.900,322.933,300.534,315.018
0.237,20.871,3.948,3.948,322.900,300.451,315.271
0.238,21.130,3.995,3.995,322.864,300.365,315.512
0.239,21.374,4.042,4.042,322.830,300.272,315.735
0.240,21.599,4.089,4.089,322.800,300.170,315.934
0.241,21.802,4.134,4.134,322.780,300.057,316.101
0.242,21.985,4.177,4.177,322.770,299.932,316.235
0.244,22.154,4.218,4.218,322.769,299.798,316.337
0.245,22.313,4.256,4.256,322.777,299.658,316.413
0.246,22.466,4.292,4.292,322.790,299.515,316.465
0.247,22.613,4.325,4.325,322.808,299.373,316.498
0.248,22.756,4.356,4.356,322.829,299.233,316.515
0.249,22.892,4.383,4.383,322.851,299.099,316.520
0.250,23.019,4.408,4.408,322.873,298.974,316.516
0.251,23.134,4.429,4.429,322.894,298.860,316.508
0.253,23.234,4.448,4.448,322.910,298.762,316.499
0.254,23.316,4.463,4.463,322.922,298.681,316.493
0.255,23.380,4.476,4.476,322.929,298.618,316.491
0.256,23.427,4.486,4.486,322.931,298.571,316.493
0.257,23.462,4.493,4.493,322.930,298.536,316.499
0.258,23.488,4.499,4.499,322.926,298.512,316.507
0.259,23.508,4.503,4.503,322.921,298.497,316.518
0.260,23.525,4.507,4.507,322.916,298.488,316.532
0.262,23.542,4.509,4.509,322.910,298.482,316.548
0.263,23.560,4.510,4.510,322.906,298.479,316.565
0.264,23.579,4.512,4.512,322.904,298.474,316.583
0.265,23.600,4.513,4.513,322.905,298.466,316.602
0.266,23.624,4.514,4.514,322.911,298.453,316.622
0.267,23.653,4.514,4.514,322.919,298.434,316.642
0.268,23.685,4.514,4.514,322.932,298.412,316.662
0.269,23.721,4.513,4.513,322.946,298.386,316.682
0.270,23.760,4.511,4.511,322.963,298.357,316.702
0.272,23.800,4.509,4.509,322.980,298.327,316.722
0.273,23.841,4.506,4.506,322.999,298.296,316.742
0.274,23.883,4.502,4.502,323.018,298.265,316.761
0.275,23.922,4.497,4.497,323.036,298.235,316.780
0.276,23.960,4.492,4.492,323.054,298.207,316.799
0.277,23.995,4.487,4.487,323.070,298.182,316.817
0.278,24.026,4.482,4.482,323.084,298.161,316.835
0.279,24.053,4.477,4.477,323.095,298.142,316.851
0.281,24.077,4.473,4.473,323.105,298.127,316.866
0.282,24.096,4.469,4.469,323.113,298.114,316.878
0.283,24.112,4.467,4.467,323.119,298.103,316.888
0.284,24.124,4.466,4.466,323.123,298.094,316.895
0.285,24.133,4.467,4.467,323.126,298.087,316.898
0.286,24.139,4.468,4.468,323.127,298.081,316.897
0.287,24.147,4.469,4.469,323.126,298.075,316.891
0.288,24.159,4.471,4.471,323.124,298.070,316.881
0.290,24.176,4.472,4.472,323.121,298.065,316.864
0.291,24.199,4.473,4.473,323.116,298.060,316.843
0.292,24.226,4.473,4.473,323.111,298.053,316.817
0.293,24.256,4.472,4.472,323.105,298.042,316.789
0.294,24.289,4.470,4.470,323.100,298.027,316.761
0.295,24.324,4.466,4.466,323.096,298.006,316.733
0.296,24.363,4.461,4.461,323.093,297.978,316.707
0.297,24.405,4.456,4.456,323.093,297.941,316.684
0.299,24.455,4.450,4.450,323.094,297.895,316.667
0.300,24.513,4.443,4.443,323.099,297.838,316.656
0.301,24.584,4.437,4.437,323.107,297.768,316.654
0.302,24.668,4.430,4.430,323.119,297.685,316.661
0.303,24.766,4.424,4.424,323.135,297.590,316.677
0.304,24.874,4.418,4.418,323.155,297.486,316.701
0.305,24.987,4.413,4.413,323.177,297.379,316.730
0.306,25.102,4.408,4.408,323.201,297.271,316.763
0.308,25.215,4.403,4.403,323.227,297.167,316.798
0.309,25.322,4.399,4.399,323.253,297.070,316.833
0.310,25.418,4.396,4.396,323.281,296.984,316.867
0.311,25.500,4.392,4.392,323.308,296.913,316.898
0.312,25.564,4.390,4.390,323.334,296.860,316.923
0.313,25.608,4.387,4.387,323.360,296.831,316.943
0.314,25.634,4.386,4.386,323.383,296.826,316.954
0.315,25.663,4.384,4.384,323.404,296.843,316.960
0.316,25.702,4.381,4.381,323.423,296.878,316.963
0.318,25.751,4.378,4.378,323.438,296.925,316.968
0.319,25.807,4.373,4.373,323.449,296.978,316.978
0.320,25.866,4.366,4.366,323.457,297.034,316.996
0.321,25.926,4.357,4.357,323.460,297.086,317.026
0.322,25.989,4.345,4.345,323.458,297.130,317.071
0.323,26.060,4.330,4.330,323.450,297.161,317.134
0.324,26.147,4.311,4.311,323.436,297.174,317.220
0.325,26.260,4.288,4.288,323.417,297.163,317.330
0.327,26.405,4.262,4.262,323.390,297.125,317.468
0.328,26.579,4.233,4.233,323.358,297.066,317.628
0.329,26.775,4.201,4.201,323.322,296.988,317.805
0.330,26.989,4.165,4.165,323.282,296.897,317.993
0.331,27.213,4.127,4.127,323.240,296.796,318.189
0.332,27.440,4.086,4.086,323.197,296.692,318.386
0.333,27.664,4.043,4.043,323.153,296.587,318.579
0.334,27.878,3.998,3.998,323.111,296.487,318.763
0.336,28.075,3.952,3.952,323.070,296.397,318.934
0.337,28.248,3.906,3.906,323.032,296.320,319.084
0.338,28.392,3.861,3.862,322.998,296.261,319.211
0.339,28.504,3.820,3.820,322.969,296.221,319.311
0.340,28.588,3.782,3.782,322.944,296.198,319.388
0.341,28.649,3.750,3.750,322.922,296.189,319.445
0.342,28.693,3.724,3.724,322.904,296.191,319.484
0.343,28.724,3.707,3.707,322.888,296.202,319.509
0.345,28.749,3.697,3.697,322.875,296.218,319.523
0.346,28.771,3.695,3.695,322.864,296.236,319.529
0.347,28.791,3.699,3.699,322.855,296.254,319.529
0.348,28.808,3.707,3.707,322.847,296.269,319.527
0.349,28.820,3.717,3.717,322.840,296.279,319.526
0.350,28.827,3.727,3.727,322.834,296.279,319.528
0.351,28.840,3.736,3.736,322.827,296.272,319.536
0.352,28.862,3.742,3.742,322.818,296.258,319.550
0.354,28.892,3.743,3.743,322.808,296.239,319.572
0.355,28.931,3.738,3.738,322.794,296.217,319.601
0.356,28.980,3.727,3.727,322.775,296.194,319.639
0.357,29.038,3.712,3.712,322.751,296.171,319.687
0.358,29.107,3.693,3.693,322.721,296.151,319.746
0.359,29.188,3.671,3.672,322.684,296.136,319.817
0.360,29.284,3.647,3.648,322.638,296.126,319.900
0.361,29.395,3.623,3.624,322.582,296.125,319.996
0.363,29.524,3.599,3.599,322.516,296.132,320.107
0.364,29.668,3.575,3.575,322.442,296.146,320.229
0.365,29.825,3.554,3.553,322.359,296.161,320.362
0.366,29.992,3.534,3.533,322.269,296.175,320.502
0.367,30.166,3.517,3.515,322.173,296.183,320.647
0.368,30.344,3.500,3.498,322.073,296.181,320.795
0.369,30.526,3.485,3.482,321.971,296.165,320.943
0.370,30.709,3.471,3.468,321.866,296.131,321.090
0.371,30.895,3.458,3.455,321.760,296.075,321.233
0.373,31.085,3.445,3.444,321.656,295.994,321.369
0.374,31.283,3.434,3.434,321.553,295.883,321.496
0.375,31.493,3.422,3.425,321.452,295.740,321.613
0.376,31.719,3.414,3.420,321.351,295.570,321.723
0.377,31.962,3.412,3.420,321.248,295.375,321.826
0.378,32.222,3.418,3.428,321.141,295.161,321.926
0.379,32.496,3.436,3.447,321.028,294.931,322.024
0.380,32.785,3.467,3.479,320.906,294.689,322.122
0.382,33.085,3.515,3.525,320.773,294.440,322.223
0.383,33.395,3.583,3.589,320.627,294.187,322.329
0.384,33.716,3.672,3.672,320.466,293.934,322.442
0.385,34.045,3.785,3.776,320.288,293.686,322.564
0.386,34.383,3.918,3.898,320.090,293.447,322.697
0.387,34.728,4.064,4.034,319.874,293.217,322.839
0.388,35.077,4.217,4.179,319.648,292.995,322.984
0.389,35.422,4.374,4.330,319.418,292.779,323.126
0.391,35.759,4.527,4.483,319.191,292.569,323.257
0.392,36.081,4.671,4.633,318.972,292.361,323.372
0.393,36.385,4.801,4.777,318.770,292.155,323.464
0.394,36.666,4.910,4.910,318.590,291.948,323.527
0.395,36.925,4.996,5.030,318.440,291.739,323.555
0.396,37.166,5.060,5.136,318.325,291.527,323.540
0.397,37.405,5.109,5.231,318.253,291.309,323.477
0.398,37.659,5.146,5.315,318.230,291.084,323.361
0.400,37.944,5.177,5.392,318.252,290.853,323.195
0.401,38.261,5.205,5.461,318.314,290.620,322.990
0.402,38.605,5.237,5.525,318.407,290.387,322.754
0.403,38.970,5.276,5.585,318.524,290.157,322.497
0.404,39.345,5.327,5.642,318.660,289.932,322.229
0.405,39.720,5.394,5.699,318.806,289.716,321.959
0.406,40.085,5.475,5.754,318.956,289.512,321.696
0.407,40.428,5.565,5.808,319.103,289.321,321.451
0.409,40.739,5.660,5.860,319.239,289.148,321.232
0.410,41.005,5.758,5.910,319.357,288.995,321.050
0.411,41.220,5.852,5.958,319.453,288.863,320.910
0.412,41.386,5.941,6.003,319.528,288.752,320.812
0.413,41.510,6.020,6.046,319.583,288.659,320.749
0.414,41.601,6.085,6.085,319.622,288.584,320.718
0.415,41.668,6.133,6.120,319.648,288.522,320.715
0.416,41.722,6.165,6.152,319.663,288.473,320.734
0.418,41.776,6.183,6.179,319.670,288.435,320.770
0.419,41.835,6.189,6.200,319.671,288.405,320.821
0.420,41.898,6.186,6.216,319.670,288.381,320.880
0.421,41.965,6.174,6.226,319.668,288.361,320.943
0.422,42.030,6.156,6.229,319.670,288.344,321.006
0.423,42.093,6.134,6.224,319.676,288.328,321.066
0.424,42.155,6.110,6.211,319.685,288.310,321.125
0.425,42.219,6.085,6.190,319.699,288.290,321.185
0.426,42.287,6.059,6.161,319.716,288.266,321.246
0.428,42.361,6.032,6.125,319.735,288.237,321.311
0.429,42.444,6.003,6.084,319.757,288.200,321.382
0.430,42.537,5.972,6.037,319.780,288.156,321.461
0.431,42.643,5.939,5.986,319.805,288.101,321.548
0.432,42.765,5.902,5.932,319.831,288.035,321.647
0.433,42.903,5.861,5.875,319.858,287.956,321.758
0.434,43.062,5.816,5.816,319.884,287.863,321.883
0.435,43.238,5.767,5.757,319.910,287.757,322.022
0.437,43.429,5.714,5.697,319.935,287.638,322.169
0.438,43.630,5.659,5.639,319.958,287.511,322.323
0.439,43.837,5.603,5.582,319.979,287.376,322.478
0.440,44.045,5.547,5.528,319.997,287.236,322.632
0.441,44.251,5.492,5.476,320.011,287.094,322.779
0.442,44.450,5.441,5.429,320.021,286.951,322.918
0.443,44.639,5.393,5.387,320.026,286.809,323.043
0.444,44.814,5.351,5.351,320.026,286.671,323.151
0.446,44.973,5.314,5.320,320.020,286.539,323.238
0.447,45.113,5.284,5.296,320.007,286.415,323.302
0.448,45.237,5.258,5.277,319.988,286.300,323.343
0.449,45.349,5.236,5.263,319.965,286.192,323.364
0.450,45.453,5.218,5.252,319.937,286.092,323.369
0.451,45.551,5.203,5.245,319.906,285.999,323.362
0.452,45.645,5.189,5.241,319.873,285.913,323.345
0.453,45.734,5.176,5.239,319.839,285.834,323.322
0.455,45.819,5.164,5.238,319.806,285.761,323.295
0.456,45.898,5.152,5.239,319.773,285.694,323.269
0.457,45.970,5.139,5.240,319.742,285.632,323.247
0.458,46.035,5.126,5.240,319.714,285.576,323.231
