"T","Distance","Radius","FreeRadius","X","Y","Z"
0.000,0.000,1.199,1.199,319.315,298.618,303.102
0.001,0.078,1.244,1.244,319.307,298.598,303.027
0.002,0.156,1.289,1.289,319.299,298.578,302.952
0.003,0.231,1.332,1.332,319.290,298.562,302.879
0.004,0.303,1.374,1.374,319.279,298.548,302.810
0.005,0.371,1.414,1.414,319.267,298.540,302.743
0.006,0.434,1.450,1.450,319.252,298.537,302.682
0.008,0.493,1.484,1.484,319.235,298.542,302.626
0.009,0.548,1.513,1.513,319.214,298.555,302.576
0.010,0.602,1.538,1.538,319.189,298.578,302.534
0.011,0.658,1.558,1.558,319.160,298.611,302.500
0.012,0.719,1.574,1.574,319.127,298.656,302.475
0.013,0.784,1.587,1.587,319.093,298.708,302.455
0.014,0.849,1.598,1.598,319.061,298.762,302.439
0.015,0.910,1.608,1.608,319.036,298.815,302.422
0.016,0.963,1.621,1.621,319.019,298.860,302.402
0.017,1.006,1.635,1.635,319.016,298.895,302.374
0.018,1.050,1.654,1.654,319.030,298.912,302.337
0.019,1.112,1.679,1.679,319.064,298.909,302.286
0.020,1.205,1.710,1.710,319.122,298.880,302.218
0.021,1.341,1.749,1.749,319.208,298.821,302.131
0.023,1.526,1.794,1.794,319.323,298.728,302.021
0.024,1.752,1.845,1.845,319.464,298.605,301.893
0.025,2.011,1.899,1.899,319.624,298.460,301.751
0.026,2.291,1.956,1.956,319.797,298.299,301.601
0.027,2.582,2.014,2.014,319.975,298.128,301.447
0.028,2.875,2.071,2.071,320.154,297.954,301.294
0.029,3.157,2.127,2.127,320.326,297.783,301.148
0.030,3.420,2.179,2.180,320.485,297.623,301.014
0.031,3.652,2.228,2.227,320.625,297.480,300.896
0.032,3.844,2.271,2.270,320.740,297.361,300.800
0.033,3.986,2.308,2.308,320.823,297.270,300.729
0.034,4.081,2.341,2.341,320.877,297.207,300.683
0.035,4.136,2.368,2.368,320.907,297.168,300.657
0.036,4.157,2.390,2.390,320.915,297.152,300.648
0.038,4.167,2.406,2.406,320.907,297.153,300.654
0.039,4.198,2.416,2.416,320.886,297.170,300.670
0.040,4.245,2.421,2.421,320.856,297.199,300.693
0.041,4.303,2.419,2.419,320.822,297.237,300.719
0.042,4.365,2.412,2.413,320.787,297.281,300.746
0.043,4.426,2.401,2.402,320.756,297.327,300.770
0.044,4.480,2.387,2.388,320.733,297.373,300.788
0.045,4.527,2.372,2.373,320.716,297.416,300.799
0.046,4.564,2.357,2.358,320.707,297.451,300.805
0.047,4.590,2.343,2.345,320.703,297.476,300.805
0.048,4.603,2.333,2.334,320.705,297.488,300.799
0.049,4.615,2.327,2.328,320.712,297.483,300.789
0.050,4.645,2.328,2.328,320.722,297.459,300.775
0.051,4.698,2.336,2.334,320.735,297.412,300.758
0.053,4.776,2.350,2.348,320.751,297.338,300.737
0.054,4.883,2.371,2.367,320.767,297.235,300.714
0.055,5.021,2.396,2.391,320.785,297.100,300.688
0.056,5.187,2.426,2.420,320.803,296.938,300.661
0.057,5.373,2.459,2.452,320.821,296.755,300.632
0.058,5.572,2.493,2.488,320.839,296.558,300.602
0.059,5.778,2.529,2.525,320.857,296.355,300.572
0.060,5.985,2.566,2.564,320.874,296.152,300.542
0.061,6.184,2.601,2.603,320.890,295.955,300.513
0.062,6.369,2.635,2.642,320.905,295.773,300.484
0.063,6.534,2.668,2.681,320.918,295.611,300.457
0.064,6.672,2.699,2.718,320.929,295.476,300.431
0.065,6.776,2.728,2.754,320.939,295.375,300.408
0.066,6.850,2.755,2.787,320.946,295.304,300.388
0.068,6.899,2.779,2.817,320.952,295.259,300.372
0.069,6.927,2.801,2.843,320.956,295.232,300.361
0.070,6.942,2.821,2.866,320.958,295.219,300.357
0.071,6.948,2.838,2.884,320.959,295.213,300.360
0.072,6.960,2.852,2.897,320.958,295.208,300.371
0.073,6.983,2.863,2.905,320.955,295.199,300.391
0.074,7.019,2.873,2.911,320.952,295.180,300.422
0.075,7.075,2.883,2.915,320.947,295.144,300.465
0.076,7.154,2.892,2.918,320.941,295.087,300.519
0.077,7.256,2.902,2.921,320.935,295.009,300.584
0.078,7.376,2.913,2.926,320.928,294.914,300.658
0.079,7.511,2.927,2.933,320.921,294.806,300.738
0.080,7.655,2.943,2.945,320.915,294.689,300.821
0.081,7.804,2.963,2.961,320.910,294.565,300.905
0.083,7.955,2.986,2.981,320.906,294.439,300.987
0.084,8.102,3.011,3.005,320.905,294.315,301.066
0.085,8.241,3.038,3.032,320.905,294.196,301.138
0.086,8.368,3.066,3.060,320.908,294.086,301.202
0.087,8.480,3.093,3.088,320.915,293.988,301.254
0.088,8.575,3.119,3.116,320.924,293.902,301.296
0.089,8.658,3.144,3.141,320.937,293.829,301.331
0.090,8.729,3.165,3.164,320.952,293.765,301.359
0.091,8.791,3.183,3.183,320.970,293.711,301.384
0.092,8.847,3.196,3.197,320.990,293.664,301.407
0.093,8.899,3.206,3.207,321.012,293.625,301.432
0.094,8.949,3.211,3.213,321.036,293.591,301.459
0.095,9.000,3.213,3.215,321.062,293.561,301.493
0.096,9.056,3.212,3.213,321.090,293.535,301.533
0.098,9.119,3.208,3.209,321.118,293.510,301.583
0.099,9.189,3.201,3.202,321.148,293.488,301.643
0.100,9.264,3.192,3.192,321.178,293.468,301.708
0.101,9.342,3.181,3.181,321.208,293.450,301.778
0.102,9.421,3.168,3.168,321.237,293.435,301.850
0.103,9.498,3.153,3.153,321.264,293.422,301.921
0.104,9.572,3.138,3.137,321.290,293.412,301.990
0.105,9.640,3.121,3.120,321.312,293.405,302.053
0.106,9.699,3.103,3.102,321.331,293.401,302.109
0.107,9.748,3.084,3.083,321.347,293.401,302.156
0.108,9.784,3.064,3.064,321.358,293.404,302.190
0.109,9.810,3.044,3.043,321.364,293.410,302.215
0.110,9.829,3.023,3.023,321.366,293.416,302.233
0.111,9.845,3.002,3.002,321.365,293.420,302.248
0.113,9.862,2.981,2.981,321.359,293.421,302.264
0.114,9.885,2.959,2.959,321.351,293.417,302.285
0.115,9.919,2.936,2.936,321.339,293.405,302.314
0.116,9.967,2.912,2.912,321.325,293.383,302.355
0.117,10.036,2.887,2.887,321.308,293.350,302.413
0.118,10.128,2.859,2.860,321.289,293.304,302.490
0.119,10.247,2.830,2.830,321.268,293.242,302.590
0.120,10.393,2.798,2.798,321.246,293.167,302.713
0.121,10.563,2.764,2.764,321.223,293.081,302.857
0.122,10.751,2.726,2.726,321.201,292.987,303.019
0.123,10.956,2.687,2.687,321.180,292.889,303.197
0.124,11.172,2.647,2.647,321.161,292.789,303.388
0.125,11.396,2.608,2.608,321.146,292.692,303.590
0.126,11.626,2.571,2.571,321.134,292.600,303.800
0.128,11.858,2.537,2.537,321.127,292.516,304.016
0.129,12.089,2.508,2.508,321.126,292.444,304.235
0.130,12.316,2.486,2.486,321.131,292.386,304.455
0.131,12.538,2.470,2.470,321.142,292.344,304.674
0.132,12.755,2.464,2.464,321.158,292.315,304.888
0.133,12.964,2.466,2.466,321.178,292.298,305.095
0.134,13.164,2.475,2.475,321.201,292.292,305.293
0.135,13.352,2.489,2.489,321.226,292.294,305.480
0.136,13.527,2.507,2.507,321.252,292.304,305.652
0.137,13.686,2.527,2.527,321.278,292.319,305.808
0.138,13.826,2.548,2.548,321.302,292.339,305.945
0.139,13.946,2.567,2.567,321.325,292.361,306.061
0.140,14.042,2.584,2.584,321.344,292.385,306.152
0.141,14.116,2.596,2.596,321.360,292.408,306.220
0.143,14.171,2.603,2.603,321.372,292.431,306.269
0.144,14.210,2.604,2.604,321.382,292.452,306.301
0.145,14.238,2.600,2.600,321.390,292.470,306.319
0.146,14.256,2.593,2.593,321.397,292.485,306.328
0.147,14.268,2.582,2.582,321.402,292.496,306.329
0.148,14.276,2.568,2.568,321.406,292.502,306.327
0.149,14.280,2.553,2.553,321.410,292.502,306.324
0.150,14.288,2.536,2.536,321.413,292.496,306.325
0.151,14.304,2.519,2.519,321.418,292.482,306.331
0.152,14.329,2.501,2.501,321.424,292.463,306.346
0.153,14.362,2.485,2.485,321.434,292.440,306.368
0.154,14.403,2.469,2.469,321.449,292.419,306.400
0.155,14.452,2.454,2.454,321.471,292.402,306.440
0.156,14.511,2.441,2.441,321.502,292.392,306.490
0.158,14.584,2.430,2.430,321.544,292.394,306.549
0.159,14.673,2.421,2.421,321.598,292.409,306.619
0.160,14.784,2.415,2.415,321.667,292.442,306.699
0.161,14.919,2.411,2.411,321.752,292.497,306.790
0.162,15.084,2.411,2.411,321.854,292.575,306.892
0.163,15.277,2.415,2.415,321.974,292.677,307.004
0.164,15.494,2.422,2.422,322.108,292.798,307.124
0.165,15.729,2.433,2.433,322.253,292.932,307.250
0.166,15.975,2.448,2.448,322.406,293.077,307.379
0.167,16.228,2.466,2.466,322.564,293.225,307.509
0.168,16.482,2.488,2.488,322.725,293.374,307.637
0.169,16.729,2.513,2.513,322.884,293.517,307.762
0.170,16.966,2.542,2.542,323.038,293.651,307.880
0.171,17.186,2.575,2.575,323.186,293.771,307.990
0.173,17.383,2.611,2.611,323.323,293.871,308.090
0.174,17.556,2.650,2.650,323.450,293.951,308.178
0.175,17.709,2.691,2.691,323.566,294.012,308.255
0.176,17.843,2.732,2.732,323.673,294.057,308.323
0.177,17.962,2.772,2.772,323.772,294.086,308.383
0.178,18.070,2.811,2.811,323.865,294.101,308.435
0.179,18.168,2.847,2.847,323.952,294.106,308.480
0.180,18.260,2.878,2.878,324.035,294.100,308.520
0.181,18.347,2.905,2.905,324.114,294.088,308.555
0.182,18.433,2.925,2.925,324.191,294.069,308.586
0.183,18.517,2.939,2.939,324.267,294.046,308.615
0.184,18.601,2.946,2.946,324.343,294.021,308.641
0.185,18.684,2.949,2.949,324.417,293.992,308.666
0.186,18.767,2.946,2.946,324.490,293.962,308.688
0.188,18.847,2.940,2.940,324.561,293.929,308.709
0.189,18.927,2.931,2.931,324.630,293.894,308.728
0.190,19.004,2.919,2.919,324.695,293.857,308.744
0.191,19.079,2.906,2.906,324.758,293.819,308.759
0.192,19.151,2.892,2.892,324.817,293.779,308.772
0.193,19.220,2.877,2.877,324.871,293.738,308.784
0.194,19.286,2.863,2.863,324.921,293.695,308.793
0.195,19.349,2.849,2.849,324.967,293.653,308.801
0.196,19.409,2.835,2.835,325.008,293.610,308.808
0.197,19.467,2.823,2.823,325.047,293.568,308.814
0.198,19.522,2.812,2.812,325.084,293.527,308.819
0.199,19.575,2.803,2.803,325.120,293.489,308.823
0.200,19.625,2.795,2.795,325.156,293.454,308.827
0.202,19.673,2.790,2.790,325.193,293.423,308.831
0.203,19.720,2.787,2.787,325.231,293.396,308.836
0.204,19.767,2.786,2.786,325.271,293.374,308.841
0.205,19.814,2.787,2.787,325.315,293.358,308.846
0.206,19.863,2.788,2.788,325.362,293.347,308.853
0.207,19.915,2.789,2.789,325.413,293.338,308.858
0.208,19.970,2.788,2.788,325.467,293.329,308.863
0.209,20.028,2.786,2.786,325.524,293.317,308.866
0.210,20.090,2.781,2.781,325.584,293.300,308.866
0.211,20.157,2.772,2.772,325.645,293.273,308.863
0.212,20.231,2.759,2.759,325.709,293.236,308.855
0.213,20.315,2.741,2.741,325.774,293.184,308.841
0.214,20.413,2.719,2.719,325.840,293.115,308.822
0.215,20.527,2.694,2.694,325.908,293.027,308.795
0.217,20.659,2.667,2.667,325.976,292.919,308.761
0.218,20.806,2.638,2.638,326.045,292.795,308.722
0.219,20.964,2.609,2.609,326.113,292.660,308.680
0.220,21.128,2.581,2.581,326.181,292.517,308.636
0.221,21.295,2.554,2.554,326.248,292.370,308.592
0.222,21.461,2.529,2.529,326.313,292.224,308.550
0.223,21.620,2.508,2.508,326.376,292.082,308.512
0.224,21.770,2.491,2.491,326.437,291.949,308.479
0.225,21.906,2.477,2.477,326.495,291.829,308.453
0.226,22.024,2.467,2.467,326.550,291.726,308.436
0.227,22.123,2.460,2.460,326.602,291.642,308.428
0.228,22.205,2.456,2.456,326.649,291.575,308.429
0.229,22.273,2.455,2.455,326.693,291.524,308.436
0.230,22.329,2.458,2.458,326.733,291.487,308.448
0.232,22.375,2.463,2.463,326.770,291.463,308.464
0.233,22.414,2.471,2.471,326.802,291.449,308.481
0.234,22.448,2.482,2.482,326.829,291.445,308.499
0.235,22.477,2.494,2.494,326.853,291.448,308.516
0.236,22.502,2.507,2.507,326.872,291.456,308.531
0.237,22.524,2.519,2.519,326.887,291.469,308.541
0.238,22.543,2.530,2.530,326.897,291.484,308.547
0.239,22.560,2.539,2.539,326.904,291.499,308.548
0.240,22.574,2.544,2.544,326.909,291.512,308.545
0.241,22.586,2.546,2.546,326.912,291.522,308.539
0.242,22.595,2.542,2.542,326.914,291.525,308.530
0.243,22.607,2.532,2.532,326.916,291.521,308.520
0.244,22.625,2.517,2.517,326.920,291.507,308.509
0.245,22.655,2.496,2.496,326.926,291.481,308.497
0.247,22.698,2.470,2.470,326.934,291.440,308.485
0.248,22.756,2.440,2.440,326.947,291.384,308.474
0.249,22.832,2.406,2.406,326.964,291.311,308.464
0.250,22.923,2.368,2.368,326.986,291.223,308.455
0.251,23.027,2.328,2.328,327.013,291.123,308.445
0.252,23.143,2.285,2.285,327.046,291.013,308.436
0.253,23.267,2.239,2.239,327.085,290.895,308.425
0.254,23.398,2.193,2.193,327.130,290.773,308.413
0.255,23.534,2.146,2.146,327.182,290.647,308.400
0.256,23.674,2.099,2.099,327.241,290.522,308.384
0.257,23.815,2.053,2.053,327.307,290.398,308.366
0.258,23.957,2.010,2.010,327.380,290.279,308.344
0.259,24.099,1.969,1.969,327.461,290.165,308.319
0.260,24.240,1.932,1.932,327.547,290.057,308.291
0.262,24.379,1.900,1.900,327.637,289.955,308.260
0.263,24.516,1.874,1.874,327.729,289.859,308.227
0.264,24.650,1.854,1.854,327.820,289.767,308.191
0.265,24.780,1.839,1.839,327.909,289.680,308.155
0.266,24.904,1.829,1.829,327.994,289.597,308.117
0.267,25.022,1.824,1.823,328.072,289.519,308.079
0.268,25.132,1.821,1.820,328.143,289.444,308.040
0.269,25.233,1.820,1.819,328.204,289.373,308.001
0.270,25.325,1.820,1.820,328.254,289.306,307.963
0.271,25.409,1.820,1.820,328.294,289.242,307.926
0.272,25.486,1.820,1.820,328.325,289.182,307.890
0.273,25.555,1.818,1.818,328.349,289.126,307.857
0.274,25.617,1.814,1.814,328.366,289.075,307.826
0.275,25.674,1.809,1.809,328.378,289.027,307.798
0.277,25.723,1.803,1.803,328.386,288.985,307.774
0.278,25.766,1.795,1.796,328.392,288.947,307.754
0.279,25.802,1.787,1.788,328.396,288.914,307.739
0.280,25.832,1.779,1.779,328.399,288.887,307.730
0.281,25.855,1.770,1.771,328.403,288.864,307.725
0.282,25.875,1.762,1.762,328.408,288.845,307.725
0.283,25.893,1.754,1.754,328.415,288.829,307.727
0.284,25.911,1.748,1.747,328.423,288.813,307.730
0.285,25.930,1.741,1.741,328.433,288.796,307.733
0.286,25.953,1.736,1.735,328.445,288.777,307.733
0.287,25.979,1.731,1.729,328.459,288.755,307.731
0.288,26.013,1.727,1.725,328.476,288.727,307.723
0.289,26.055,1.723,1.721,328.496,288.693,307.709
0.290,26.109,1.720,1.718,328.520,288.650,307.687
0.292,26.174,1.717,1.716,328.547,288.598,307.656
0.293,26.253,1.715,1.715,328.579,288.538,307.618
0.294,26.344,1.713,1.714,328.616,288.469,307.572
0.295,26.446,1.712,1.715,328.662,288.393,307.522
0.296,26.559,1.713,1.717,328.715,288.309,307.467
0.297,26.684,1.716,1.721,328.778,288.219,307.409
0.298,26.819,1.721,1.727,328.852,288.122,307.350
0.299,26.965,1.729,1.736,328.938,288.020,307.290
0.300,27.122,1.742,1.748,329.037,287.913,307.231
0.301,27.291,1.759,1.763,329.150,287.802,307.173
0.302,27.472,1.780,1.783,329.278,287.687,307.119
0.303,27.663,1.808,1.807,329.420,287.568,307.069
0.304,27.864,1.841,1.835,329.574,287.447,307.025
0.305,28.073,1.880,1.869,329.738,287.324,306.987
0.307,28.289,1.924,1.907,329.912,287.199,306.956
0.308,28.510,1.972,1.951,330.093,287.074,306.934
0.309,28.735,2.024,2.001,330.280,286.949,306.921
0.310,28.963,2.079,2.056,330.471,286.825,306.920
0.311,29.193,2.138,2.117,330.665,286.702,306.930
0.312,29.424,2.199,2.185,330.860,286.581,306.954
0.313,29.654,2.261,2.259,331.055,286.463,306.990
0.314,29.883,2.325,2.339,331.248,286.350,307.038
0.315,30.108,2.389,2.425,331.440,286.245,307.092
0.316,30.327,2.452,2.512,331.628,286.151,307.151
0.317,30.537,2.512,2.599,331.813,286.071,307.211
0.318,30.736,2.569,2.683,331.992,286.006,307.270
0.319,30.924,2.621,2.762,332.166,285.960,307.323
0.320,31.098,2.666,2.833,332.332,285.936,307.367
0.322,31.261,2.704,2.893,332.492,285.935,307.400
0.323,31.415,2.733,2.941,332.642,285.961,307.418
0.324,31.566,2.751,2.973,332.783,286.015,307.420
0.325,31.718,2.760,2.990,332.915,286.089,307.404
0.326,31.872,2.760,2.994,333.038,286.177,307.374
0.327,32.025,2.754,2.987,333.151,286.271,307.331
0.328,32.174,2.743,2.972,333.255,286.362,307.275
0.329,32.315,2.730,2.950,333.349,286.443,307.208
0.330,32.446,2.717,2.926,333.435,286.507,307.132
0.331,32.566,2.706,2.900,333.511,286.544,307.048
0.332,32.679,2.697,2.875,333.578,286.549,306.957
0.333,32.797,2.695,2.855,333.637,286.512,306.861
0.334,32.937,2.699,2.840,333.687,286.428,306.761
0.335,33.106,2.709,2.831,333.731,286.301,306.658
0.337,33.303,2.725,2.827,333.772,286.138,306.555
0.338,33.526,2.745,2.827,333.815,285.945,306.452
0.339,33.770,2.768,2.831,333.861,285.728,306.350
0.340,34.030,2.794,2.839,333.914,285.493,306.252
0.341,34.301,2.820,2.849,333.978,285.247,306.158
0.342,34.578,2.846,2.862,334.055,284.996,306.070
0.343,34.857,2.871,2.875,334.149,284.746,305.990
0.344,35.135,2.895,2.890,334.262,284.503,305.918
0.345,35.409,2.916,2.906,334.398,284.273,305.856
0.346,35.680,2.935,2.922,334.551,284.055,305.805
0.347,35.947,2.955,2.941,334.715,283.848,305.764
0.348,36.210,2.974,2.961,334.885,283.650,305.735
0.349,36.466,2.995,2.984,335.053,283.458,305.718
0.350,36.714,3.018,3.010,335.216,283.271,305.712
0.352,36.951,3.044,3.039,335.366,283.088,305.719
0.353,37.176,3.074,3.071,335.497,282.906,305.739
0.354,37.389,3.108,3.108,335.603,282.724,305.771
0.355,37.594,3.147,3.149,335.679,282.539,305.818
0.356,37.794,3.190,3.193,335.719,282.352,305.878
0.357,37.996,3.235,3.239,335.728,282.164,305.949
0.358,38.200,3.282,3.285,335.710,281.977,306.030
0.359,38.406,3.329,3.332,335.670,281.795,306.118
0.360,38.611,3.375,3.377,335.615,281.621,306.210
0.361,38.811,3.418,3.420,335.549,281.457,306.304
0.362,39.002,3.458,3.459,335.478,281.308,306.399
0.363,39.178,3.494,3.494,335.406,281.175,306.490
0.364,39.335,3.523,3.523,335.340,281.061,306.577
0.365,39.468,3.547,3.546,335.285,280.971,306.656
0.367,39.572,3.566,3.565,335.245,280.905,306.726
0.368,39.651,3.581,3.580,335.220,280.860,306.787
0.369,39.712,3.593,3.592,335.209,280.832,306.840
0.370,39.761,3.603,3.602,335.210,280.815,306.885
0.371,39.802,3.611,3.610,335.221,280.803,306.924
0.372,39.842,3.618,3.618,335.240,280.793,306.957
0.373,39.884,3.626,3.626,335.267,280.779,306.985
0.374,39.930,3.635,3.635,335.300,280.755,307.009
0.375,39.987,3.645,3.645,335.336,280.718,307.030
0.376,40.058,3.656,3.656,335.374,280.660,307.049
0.377,40.150,3.668,3.668,335.413,280.580,307.067
0.378,40.260,3.681,3.681,335.452,280.478,307.084
0.379,40.387,3.694,3.694,335.491,280.358,307.099
0.380,40.525,3.707,3.707,335.530,280.226,307.114
0.382,40.671,3.720,3.720,335.567,280.086,307.128
0.383,40.821,3.733,3.733,335.603,279.941,307.141
0.384,40.970,3.744,3.744,335.638,279.796,307.154
0.385,41.115,3.755,3.755,335.670,279.656,307.167
0.386,41.251,3.765,3.765,335.700,279.524,307.179
0.387,41.373,3.774,3.774,335.727,279.405,307.191
0.388,41.479,3.783,3.783,335.751,279.303,307.203
0.389,41.569,3.792,3.792,335.773,279.216,307.216
0.390,41.647,3.802,3.802,335.790,279.142,307.232
0.391,41.715,3.812,3.812,335.805,279.079,307.252
0.392,41.777,3.824,3.824,335.816,279.023,307.278
0.393,41.838,3.837,3.837,335.824,278.973,307.312
0.394,41.903,3.851,3.851,335.829,278.925,307.354
0.395,41.974,3.868,3.868,335.831,278.876,307.406
0.397,42.056,3.886,3.886,335.829,278.825,307.471
0.398,42.152,3.904,3.904,335.824,278.768,307.548
0.399,42.265,3.924,3.924,335.815,278.704,307.640
0.400,42.392,3.944,3.944,335.805,278.632,307.744
0.401,42.527,3.963,3.963,335.792,278.556,307.856
0.402,42.667,3.983,3.983,335.780,278.478,307.971
0.403,42.806,4.001,4.001,335.768,278.399,308.085
0.404,42.941,4.019,4.019,335.759,278.323,308.195
0.405,43.065,4.035,4.035,335.752,278.251,308.297
0.406,43.175,4.049,4.049,335.750,278.186,308.385
0.407,43.265,4.062,4.062,335.753,278.130,308.456
0.408,43.333,4.072,4.072,335.763,278.086,308.507
0.409,43.377,4.081,4.081,335.780,278.054,308.532
0.411,43.407,4.087,4.087,335.803,278.035,308.537
0.412,43.435,4.090,4.090,335.827,278.027,308.525
0.413,43.467,4.091,4.091,335.850,278.026,308.504
0.414,43.498,4.089,4.089,335.869,278.030,308.480
0.415,43.525,4.084,4.084,335.880,278.039,308.457
0.416,43.542,4.076,4.076,335.880,278.048,308.443
0.417,43.559,4.064,4.064,335.866,278.056,308.442
0.418,43.596,4.049,4.049,335.834,278.062,308.462
0.419,43.666,4.031,4.031,335.781,278.061,308.508
0.420,43.775,4.010,4.010,335.705,278.054,308.584
0.421,43.920,3.985,3.985,335.606,278.039,308.690
0.422,44.096,3.956,3.956,335.488,278.018,308.819
0.423,44.296,3.924,3.924,335.355,277.993,308.966
0.424,44.512,3.888,3.888,335.210,277.966,309.125
0.426,44.739,3.849,3.849,335.058,277.937,309.289
0.427,44.969,3.807,3.807,334.900,277.908,309.454
0.428,45.195,3.764,3.764,334.742,277.881,309.614
0.429,45.412,3.720,3.720,334.586,277.856,309.762
0.430,45.612,3.677,3.677,334.437,277.837,309.894
0.431,45.790,3.635,3.635,334.297,277.823,310.003
0.432,45.947,3.596,3.596,334.168,277.813,310.093
0.433,46.085,3.560,3.560,334.053,277.807,310.168
0.434,46.207,3.529,3.529,333.951,277.801,310.235
0.435,46.314,3.504,3.504,333.866,277.794,310.300
0.436,46.413,3.483,3.483,333.797,277.784,310.369
0.437,46.508,3.467,3.467,333.746,277.768,310.448
