"T","Distance","Radius","FreeRadius","X","Y","Z"
0.000,0.000,1.255,1.255,236.983,213.126,208.455
0.001,0.195,1.263,1.263,236.919,213.242,208.312
0.003,0.386,1.270,1.270,236.857,213.357,208.172
0.004,0.571,1.278,1.278,236.796,213.468,208.037
0.005,0.747,1.286,1.286,236.739,213.574,207.909
0.006,0.910,1.295,1.295,236.685,213.674,207.791
0.008,1.058,1.305,1.305,236.637,213.766,207.686
0.009,1.187,1.316,1.316,236.595,213.847,207.595
0.010,1.295,1.328,1.328,236.560,213.918,207.522
0.011,1.378,1.341,1.341,236.533,213.975,207.468
0.013,1.434,1.354,1.354,236.515,214.018,207.436
0.014,1.466,1.367,1.367,236.505,214.046,207.425
0.015,1.483,1.379,1.379,236.502,214.063,207.428
0.016,1.498,1.388,1.388,236.504,214.068,207.441
0.018,1.517,1.394,1.394,236.509,214.066,207.460
0.019,1.538,1.395,1.395,236.516,214.056,207.477
0.020,1.558,1.391,1.391,236.522,214.042,207.490
0.021,1.576,1.381,1.381,236.527,214.025,207.492
0.023,1.598,1.367,1.367,236.527,214.007,207.478
0.024,1.637,1.350,1.350,236.522,213.990,207.444
0.025,1.697,1.333,1.333,236.510,213.976,207.387
0.026,1.777,1.317,1.317,236.492,213.966,207.310
0.028,1.874,1.306,1.306,236.466,213.963,207.216
0.029,1.986,1.300,1.300,236.432,213.968,207.110
0.030,2.109,1.302,1.302,236.391,213.984,206.995
0.031,2.242,1.315,1.315,236.343,214.012,206.874
0.033,2.383,1.336,1.336,236.287,214.054,206.752
0.034,2.531,1.364,1.364,236.223,214.112,206.632
0.035,2.686,1.398,1.398,236.151,214.188,206.517
0.036,2.849,1.435,1.435,236.071,214.284,206.412
0.038,3.019,1.474,1.474,235.984,214.394,206.316
0.039,3.194,1.512,1.512,235.892,214.513,206.227
0.040,3.368,1.549,1.549,235.798,214.634,206.144
0.041,3.539,1.581,1.581,235.701,214.751,206.066
0.043,3.701,1.609,1.609,235.605,214.859,205.991
0.044,3.851,1.635,1.635,235.510,214.950,205.919
0.045,3.986,1.658,1.658,235.420,215.018,205.847
0.046,4.105,1.680,1.680,235.335,215.058,205.774
0.048,4.213,1.702,1.702,235.257,215.062,205.699
0.049,4.322,1.725,1.725,235.186,215.031,205.622
0.050,4.440,1.750,1.750,235.124,214.971,205.542
0.051,4.570,1.776,1.776,235.069,214.886,205.461
0.053,4.710,1.805,1.805,235.021,214.783,205.378
0.054,4.858,1.836,1.836,234.979,214.669,205.295
0.055,5.009,1.866,1.866,234.944,214.548,205.211
0.056,5.158,1.896,1.896,234.916,214.428,205.127
0.058,5.301,1.924,1.924,234.893,214.313,205.044
0.059,5.434,1.949,1.949,234.875,214.211,204.962
0.060,5.552,1.971,1.971,234.863,214.125,204.882
0.061,5.656,1.988,1.988,234.855,214.055,204.805
0.063,5.747,2.001,2.001,234.849,214.000,204.732
0.064,5.826,2.010,2.010,234.846,213.960,204.665
0.065,5.892,2.016,2.016,234.843,213.932,204.605
0.066,5.946,2.021,2.021,234.840,213.916,204.553
0.068,5.989,2.026,2.026,234.836,213.910,204.511
0.069,6.021,2.030,2.030,234.829,213.913,204.480
0.070,6.046,2.036,2.036,234.819,213.924,204.461
0.071,6.069,2.044,2.044,234.804,213.942,204.455
0.073,6.098,2.053,2.053,234.786,213.963,204.462
0.074,6.129,2.062,2.062,234.768,213.983,204.476
0.075,6.158,2.070,2.070,234.752,213.998,204.496
0.076,6.182,2.074,2.074,234.742,214.003,204.517
0.078,6.204,2.074,2.074,234.739,213.994,204.537
0.079,6.236,2.068,2.068,234.748,213.966,204.551
0.080,6.292,2.053,2.053,234.770,213.916,204.557
0.081,6.379,2.030,2.030,234.809,213.838,204.551
0.083,6.505,1.998,1.998,234.868,213.729,204.530
0.084,6.670,1.961,1.961,234.946,213.588,204.492
0.085,6.868,1.922,1.922,235.040,213.421,204.440
0.086,7.089,1.883,1.883,235.145,213.237,204.378
0.088,7.323,1.848,1.848,235.256,213.043,204.309
0.089,7.562,1.820,1.820,235.369,212.846,204.235
0.090,7.795,1.802,1.802,235.479,212.654,204.160
0.091,8.015,1.797,1.797,235.581,212.475,204.087
0.093,8.210,1.805,1.805,235.671,212.315,204.019
0.094,8.373,1.823,1.823,235.745,212.182,203.959
0.095,8.496,1.849,1.849,235.798,212.083,203.910
0.096,8.584,1.879,1.879,235.834,212.014,203.870
0.098,8.645,1.911,1.911,235.857,211.969,203.836
0.099,8.689,1.942,1.942,235.873,211.943,203.804
0.100,8.725,1.969,1.969,235.886,211.930,203.773
0.102,8.764,1.989,1.989,235.902,211.923,203.738
0.103,8.811,2.001,2.001,235.925,211.917,203.697
0.104,8.874,2.008,2.008,235.960,211.906,203.647
0.105,8.958,2.011,2.011,236.012,211.885,203.584
0.107,9.072,2.014,2.014,236.087,211.846,203.506
0.108,9.217,2.019,2.019,236.183,211.791,203.414
0.109,9.384,2.028,2.028,236.295,211.721,203.310
0.110,9.567,2.044,2.044,236.418,211.642,203.200
0.112,9.758,2.068,2.068,236.547,211.558,203.088
0.113,9.949,2.103,2.103,236.675,211.472,202.976
0.114,10.131,2.144,2.144,236.798,211.388,202.870
0.115,10.298,2.189,2.189,236.911,211.311,202.774
0.117,10.441,2.236,2.236,237.006,211.244,202.691
0.118,10.553,2.282,2.282,237.080,211.192,202.626
0.119,10.628,2.323,2.323,237.129,211.157,202.580
0.120,10.672,2.357,2.357,237.156,211.137,202.553
0.122,10.690,2.382,2.382,237.166,211.129,202.539
0.123,10.695,2.395,2.395,237.162,211.131,202.536
0.124,10.710,2.400,2.400,237.151,211.140,202.540
0.125,10.732,2.398,2.398,237.135,211.153,202.549
0.127,10.755,2.392,2.392,237.120,211.167,202.559
0.128,10.774,2.384,2.384,237.109,211.179,202.566
0.129,10.782,2.376,2.376,237.108,211.188,202.568
0.130,10.796,2.371,2.371,237.120,211.190,202.561
0.132,10.827,2.371,2.371,237.146,211.185,202.545
0.133,10.875,2.378,2.378,237.184,211.173,202.520
0.134,10.936,2.390,2.390,237.235,211.156,202.489
0.135,11.011,2.409,2.409,237.295,211.133,202.451
0.137,11.097,2.431,2.431,237.365,211.107,202.409
0.138,11.192,2.459,2.459,237.442,211.076,202.362
0.139,11.295,2.490,2.490,237.526,211.042,202.312
0.140,11.405,2.524,2.524,237.615,211.006,202.260
0.142,11.518,2.560,2.560,237.708,210.969,202.207
0.143,11.634,2.598,2.598,237.804,210.930,202.154
0.144,11.752,2.638,2.638,237.900,210.890,202.100
0.145,11.868,2.679,2.679,237.994,210.850,202.044
0.147,11.983,2.720,2.720,238.084,210.810,201.986
0.148,12.094,2.760,2.760,238.168,210.770,201.926
0.149,12.200,2.800,2.800,238.243,210.731,201.862
0.150,12.300,2.839,2.839,238.308,210.692,201.795
0.152,12.396,2.876,2.876,238.360,210.655,201.725
0.153,12.486,2.911,2.911,238.397,210.620,201.650
0.154,12.575,2.943,2.943,238.418,210.587,201.570
0.155,12.662,2.973,2.973,238.425,210.555,201.489
0.157,12.746,2.999,2.999,238.421,210.525,201.411
0.158,12.824,3.021,3.021,238.411,210.495,201.340
0.159,12.894,3.040,3.040,238.397,210.466,201.278
0.160,12.951,3.054,3.054,238.383,210.437,201.231
0.162,12.994,3.063,3.063,238.373,210.408,201.201
0.163,13.025,3.067,3.067,238.371,210.377,201.193
0.164,13.062,3.066,3.066,238.379,210.346,201.211
0.165,13.123,3.059,3.059,238.402,210.314,201.258
0.167,13.214,3.046,3.046,238.438,210.279,201.333
0.168,13.331,3.027,3.027,238.487,210.242,201.433
0.169,13.470,3.001,3.001,238.546,210.202,201.552
0.170,13.626,2.967,2.967,238.613,210.158,201.686
0.172,13.795,2.926,2.926,238.684,210.110,201.831
0.173,13.971,2.877,2.877,238.758,210.058,201.983
0.174,14.151,2.823,2.823,238.833,210.001,202.136
0.175,14.329,2.767,2.767,238.905,209.938,202.286
0.177,14.502,2.710,2.710,238.973,209.869,202.429
0.178,14.666,2.656,2.656,239.035,209.795,202.562
0.179,14.821,2.607,2.607,239.091,209.716,202.684
0.180,14.967,2.566,2.566,239.140,209.636,202.794
0.182,15.101,2.536,2.536,239.184,209.556,202.894
0.183,15.224,2.519,2.519,239.222,209.479,202.981
0.184,15.333,2.513,2.513,239.254,209.407,203.057
0.185,15.429,2.516,2.516,239.280,209.342,203.121
0.187,15.508,2.526,2.526,239.301,209.285,203.173
0.188,15.570,2.541,2.541,239.317,209.241,203.213
0.189,15.613,2.557,2.557,239.327,209.209,203.240
0.190,15.639,2.573,2.573,239.332,209.190,203.257
0.192,15.651,2.587,2.587,239.334,209.181,203.264
0.193,15.652,2.596,2.596,239.334,209.180,203.264
0.194,15.660,2.599,2.599,239.331,209.185,203.259
0.195,15.673,2.600,2.600,239.327,209.195,203.251
0.197,15.688,2.597,2.597,239.324,209.206,203.241
0.198,15.703,2.591,2.591,239.322,209.218,203.232
0.199,15.715,2.585,2.585,239.321,209.227,203.225
0.201,15.721,2.578,2.578,239.323,209.232,203.222
0.202,15.727,2.571,2.571,239.329,209.232,203.224
0.203,15.739,2.566,2.566,239.337,209.227,203.231
0.204,15.757,2.561,2.561,239.349,209.217,203.243
0.206,15.782,2.557,2.557,239.363,209.204,203.258
0.207,15.812,2.553,2.553,239.379,209.186,203.276
0.208,15.847,2.549,2.549,239.397,209.165,203.297
0.209,15.886,2.545,2.545,239.417,209.141,203.321
0.211,15.929,2.539,2.539,239.439,209.115,203.347
0.212,15.975,2.531,2.531,239.462,209.086,203.374
0.213,16.024,2.522,2.522,239.486,209.056,203.403
0.214,16.074,2.510,2.510,239.513,209.024,203.432
0.216,16.128,2.497,2.497,239.545,208.993,203.462
0.217,16.184,2.483,2.483,239.582,208.963,203.492
0.218,16.244,2.467,2.467,239.626,208.936,203.522
0.219,16.309,2.451,2.451,239.679,208.912,203.551
0.221,16.381,2.434,2.434,239.743,208.892,203.579
0.222,16.463,2.416,2.416,239.819,208.878,203.606
0.223,16.556,2.399,2.399,239.908,208.871,203.631
0.224,16.662,2.381,2.381,240.012,208.871,203.654
0.226,16.781,2.365,2.365,240.128,208.877,203.676
0.227,16.907,2.351,2.351,240.253,208.886,203.696
0.228,17.037,2.339,2.339,240.381,208.896,203.715
0.229,17.165,2.330,2.330,240.507,208.904,203.733
0.231,17.287,2.325,2.325,240.628,208.907,203.752
0.232,17.399,2.325,2.325,240.738,208.901,203.770
0.233,17.497,2.329,2.329,240.832,208.884,203.790
0.234,17.580,2.338,2.338,240.907,208.854,203.810
0.236,17.652,2.350,2.350,240.957,208.807,203.832
0.237,17.724,2.365,2.365,240.980,208.743,203.855
0.238,17.804,2.381,2.381,240.982,208.667,203.880
0.239,17.893,2.398,2.398,240.968,208.583,203.906
0.241,17.986,2.413,2.413,240.943,208.497,203.934
0.242,18.079,2.427,2.427,240.912,208.415,203.961
0.243,18.165,2.437,2.437,240.881,208.340,203.989
0.244,18.237,2.443,2.443,240.855,208.279,204.017
0.246,18.290,2.445,2.445,240.840,208.236,204.045
0.247,18.324,2.441,2.441,240.840,208.216,204.073
0.248,18.359,2.430,2.430,240.862,208.224,204.099
0.249,18.421,2.412,2.412,240.906,208.257,204.127
0.251,18.510,2.387,2.387,240.974,208.307,204.157
0.252,18.627,2.352,2.352,241.066,208.370,204.192
0.253,18.768,2.308,2.309,241.183,208.438,204.233
0.254,18.933,2.257,2.257,241.325,208.505,204.282
0.256,19.122,2.202,2.203,241.494,208.565,204.342
0.257,19.335,2.149,2.149,241.689,208.612,204.414
0.258,19.576,2.102,2.102,241.913,208.640,204.501
0.259,19.848,2.064,2.065,242.164,208.642,204.603
0.261,20.149,2.042,2.042,242.440,208.618,204.720
0.262,20.471,2.039,2.039,242.733,208.573,204.847
0.263,20.806,2.060,2.059,243.033,208.511,204.981
0.264,21.144,2.104,2.104,243.333,208.437,205.118
0.266,21.474,2.167,2.166,243.624,208.356,205.252
0.267,21.787,2.243,2.242,243.898,208.274,205.379
0.268,22.072,2.326,2.325,244.146,208.195,205.496
0.269,22.318,2.412,2.411,244.359,208.124,205.597
0.271,22.516,2.495,2.494,244.529,208.067,205.679
0.272,22.658,2.568,2.568,244.651,208.026,205.739
0.273,22.749,2.627,2.628,244.730,208.001,205.779
0.274,22.799,2.670,2.671,244.772,207.989,205.802
0.276,22.815,2.698,2.701,244.785,207.988,205.812
0.277,22.828,2.715,2.718,244.774,207.996,205.812
0.278,22.859,2.722,2.726,244.748,208.010,205.806
0.279,22.900,2.722,2.726,244.712,208.028,205.797
0.281,22.944,2.718,2.722,244.674,208.048,205.787
0.282,22.984,2.713,2.715,244.640,208.068,205.782
0.283,23.012,2.708,2.708,244.617,208.085,205.783
0.284,23.031,2.706,2.702,244.608,208.100,205.790
0.286,23.049,2.706,2.697,244.612,208.113,205.802
0.287,23.074,2.706,2.694,244.629,208.125,205.815
0.288,23.110,2.707,2.692,244.659,208.139,205.829
0.289,23.158,2.708,2.692,244.703,208.154,205.841
0.291,23.219,2.707,2.694,244.760,208.173,205.848
0.292,23.292,2.704,2.697,244.830,208.196,205.849
0.293,23.380,2.699,2.702,244.913,208.224,205.842
0.294,23.484,2.691,2.708,245.009,208.259,205.823
0.296,23.604,2.682,2.716,245.117,208.302,205.794
0.297,23.738,2.674,2.726,245.236,208.352,205.760
0.298,23.882,2.667,2.738,245.363,208.411,205.726
0.299,24.034,2.665,2.752,245.497,208.478,205.697
0.301,24.192,2.667,2.768,245.635,208.553,205.679
0.302,24.356,2.677,2.786,245.775,208.638,205.676
0.303,24.527,2.695,2.807,245.916,208.733,205.694
0.305,24.706,2.722,2.829,246.054,208.837,205.739
0.306,24.899,2.758,2.855,246.190,208.951,205.815
0.307,25.110,2.801,2.883,246.319,209.076,205.927
0.308,25.341,2.850,2.914,246.443,209.208,206.069
0.310,25.585,2.903,2.949,246.561,209.346,206.233
0.311,25.838,2.959,2.987,246.674,209.486,206.410
0.312,26.092,3.018,3.029,246.781,209.626,206.593
0.313,26.340,3.077,3.076,246.883,209.764,206.774
0.315,26.576,3.136,3.126,246.979,209.895,206.943
0.316,26.791,3.192,3.178,247.071,210.019,207.093
0.317,26.978,3.245,3.229,247.157,210.131,207.217
0.318,27.134,3.291,3.277,247.238,210.230,207.305
0.320,27.260,3.331,3.320,247.314,210.316,207.357
0.321,27.365,3.361,3.354,247.382,210.393,207.381
0.322,27.459,3.381,3.378,247.441,210.467,207.382
0.323,27.548,3.389,3.389,247.489,210.540,207.369
0.325,27.636,3.383,3.385,247.524,210.618,207.347
0.326,27.728,3.365,3.369,247.545,210.704,207.323
0.327,27.830,3.338,3.342,247.549,210.804,207.305
0.328,27.947,3.304,3.308,247.536,210.921,207.299
0.330,28.090,3.266,3.269,247.503,211.059,207.313
0.331,28.265,3.224,3.226,247.451,211.221,207.350
0.332,28.466,3.183,3.184,247.382,211.401,207.407
0.333,28.686,3.143,3.143,247.302,211.593,207.480
0.335,28.918,3.107,3.107,247.214,211.790,207.565
0.336,29.152,3.076,3.075,247.124,211.986,207.656
0.337,29.380,3.048,3.047,247.034,212.174,207.751
0.338,29.594,3.024,3.023,246.951,212.348,207.844
0.340,29.785,3.005,3.004,246.878,212.501,207.930
0.341,29.944,2.988,2.988,246.820,212.628,208.007
0.342,30.063,2.976,2.975,246.780,212.721,208.069
0.343,30.144,2.967,2.967,246.758,212.783,208.116
0.345,30.193,2.961,2.961,246.749,212.819,208.149
0.346,30.217,2.958,2.958,246.752,212.832,208.168
0.347,30.229,2.957,2.957,246.761,212.828,208.175
0.348,30.251,2.958,2.958,246.774,212.811,208.171
0.350,30.282,2.960,2.960,246.787,212.786,208.156
0.351,30.320,2.963,2.963,246.796,212.759,208.132
0.352,30.362,2.966,2.966,246.799,212.732,208.100
0.353,30.408,2.968,2.968,246.791,212.713,208.059
0.355,30.457,2.969,2.969,246.771,212.702,208.015
0.356,30.508,2.968,2.968,246.742,212.702,207.973
0.357,30.558,2.964,2.964,246.706,212.712,207.941
0.358,30.606,2.956,2.956,246.665,212.734,207.925
0.360,30.661,2.944,2.944,246.623,212.767,207.932
0.361,30.734,2.926,2.926,246.581,212.813,207.970
0.362,30.837,2.902,2.902,246.542,212.872,208.045
0.363,30.980,2.870,2.870,246.509,212.944,208.164
0.365,31.173,2.830,2.830,246.483,213.030,208.335
0.366,31.420,2.782,2.782,246.467,213.131,208.560
0.367,31.713,2.728,2.728,246.459,213.245,208.830
0.368,32.037,2.669,2.669,246.456,213.374,209.127
0.370,32.379,2.606,2.606,246.455,213.515,209.438
0.371,32.725,2.541,2.541,246.454,213.669,209.748
0.372,33.061,2.473,2.473,246.448,213.836,210.040
0.373,33.376,2.406,2.406,246.437,214.014,210.300
0.375,33.662,2.339,2.339,246.416,214.204,210.513
0.376,33.914,2.274,2.274,246.382,214.404,210.663
0.377,34.143,2.213,2.213,246.334,214.615,210.736
0.378,34.369,2.155,2.155,246.272,214.833,210.732
0.380,34.612,2.102,2.102,246.199,215.054,210.664
0.381,34.873,2.055,2.055,246.117,215.272,210.546
0.382,35.151,2.015,2.015,246.031,215.485,210.389
0.383,35.436,1.983,1.983,245.944,215.686,210.207
0.385,35.718,1.960,1.960,245.859,215.871,210.012
0.386,35.985,1.945,1.945,245.779,216.036,209.818
0.387,36.224,1.938,1.938,245.707,216.175,209.637
0.388,36.423,1.935,1.935,245.646,216.284,209.483
0.390,36.574,1.937,1.937,245.599,216.362,209.362
0.391,36.683,1.942,1.942,245.565,216.412,209.272
0.392,36.757,1.949,1.949,245.541,216.441,209.208
0.393,36.804,1.956,1.956,245.527,216.452,209.165
0.395,36.832,1.961,1.961,245.520,216.453,209.137
0.396,36.850,1.965,1.965,245.519,216.447,209.120
0.397,36.863,1.967,1.967,245.523,216.441,209.109
0.398,36.876,1.968,1.968,245.530,216.440,209.098
0.400,36.895,1.966,1.966,245.538,216.449,209.084
0.401,36.930,1.961,1.961,245.547,216.473,209.060
0.402,36.980,1.955,1.955,245.555,216.511,209.028
0.404,37.042,1.945,1.945,245.563,216.560,208.989
0.405,37.113,1.934,1.934,245.571,216.615,208.945
0.406,37.189,1.919,1.919,245.579,216.673,208.898
0.407,37.264,1.904,1.904,245.588,216.731,208.850
0.409,37.337,1.888,1.888,245.598,216.785,208.803
0.410,37.402,1.872,1.872,245.608,216.831,208.758
0.411,37.458,1.857,1.857,245.620,216.867,208.717
0.412,37.500,1.845,1.845,245.632,216.888,208.683
0.414,37.532,1.835,1.835,245.646,216.894,208.655
0.415,37.561,1.828,1.828,245.660,216.890,208.630
0.416,37.591,1.825,1.825,245.673,216.879,208.605
0.417,37.623,1.824,1.824,245.685,216.866,208.578
0.419,37.659,1.822,1.822,245.695,216.855,208.545
0.420,37.701,1.818,1.818,245.702,216.850,208.504
0.421,37.754,1.811,1.811,245.704,216.855,208.451
0.422,37.824,1.799,1.799,245.703,216.875,208.384
0.424,37.916,1.780,1.780,245.696,216.913,208.300
0.425,38.036,1.752,1.752,245.683,216.973,208.198
0.426,38.181,1.717,1.717,245.663,217.055,208.079
0.427,38.347,1.676,1.676,245.638,217.156,207.950
0.429,38.530,1.634,1.634,245.606,217.275,207.815
0.430,38.727,1.593,1.593,245.568,217.411,207.678
0.431,38.933,1.556,1.556,245.523,217.562,207.544
0.432,39.147,1.527,1.527,245.472,217.725,207.417
0.434,39.364,1.508,1.508,245.414,217.901,207.303
0.435,39.584,1.503,1.503,245.350,218.087,207.205
0.436,39.805,1.512,1.512,245.279,218.281,207.127
0.437,40.026,1.533,1.533,245.203,218.481,207.070
0.439,40.247,1.564,1.564,245.122,218.683,207.030
0.440,40.466,1.601,1.601,245.038,218.883,207.004
0.441,40.679,1.644,1.644,244.952,219.078,206.987
0.442,40.884,1.688,1.688,244.866,219.263,206.977
0.444,41.077,1.732,1.732,244.780,219.436,206.969
0.445,41.254,1.772,1.772,244.697,219.592,206.960
0.446,41.412,1.809,1.809,244.617,219.728,206.947
0.447,41.549,1.841,1.841,244.542,219.840,206.926
0.449,41.664,1.871,1.871,244.473,219.926,206.895
0.450,41.761,1.897,1.897,244.410,219.991,206.856
0.451,41.846,1.920,1.920,244.355,220.037,206.812
0.452,41.920,1.942,1.942,244.307,220.068,206.765
0.454,41.985,1.962,1.962,244.267,220.088,206.718
0.455,42.041,1.981,1.981,244.236,220.100,206.672
0.456,42.089,1.999,1.999,244.214,220.109,206.631
0.457,42.127,2.016,2.016,244.201,220.117,206.597
0.459,42.155,2.030,2.030,244.199,220.130,206.572
0.460,42.180,2.041,2.041,244.207,220.148,206.557
0.461,42.212,2.048,2.048,244.225,220.175,206.552
0.462,42.255,2.051,2.051,244.252,220.208,206.554
0.464,42.309,2.049,2.049,244.287,220.248,206.561
0.465,42.372,2.040,2.040,244.329,220.295,206.569
0.466,42.443,2.026,2.026,244.376,220.347,206.575
0.467,42.521,2.007,2.007,244.428,220.405,206.578
0.469,42.605,1.985,1.985,244.484,220.469,206.574
0.470,42.696,1.962,1.962,244.543,220.537,206.562
0.471,42.794,1.939,1.939,244.603,220.610,206.537
0.472,42.898,1.919,1.919,244.663,220.686,206.500
0.474,43.008,1.903,1.903,244.723,220.764,206.451
0.475,43.122,1.892,1.892,244.781,220.843,206.393
0.476,43.238,1.888,1.888,244.835,220.921,206.325
0.477,43.355,1.889,1.889,244.886,220.995,206.251
0.479,43.471,1.893,1.893,244.930,221.066,206.170
0.480,43.584,1.900,1.900,244.967,221.130,206.084
0.481,43.693,1.908,1.908,244.996,221.186,205.995
0.482,43.798,1.915,1.915,245.016,221.234,205.904
0.484,43.898,1.920,1.920,245.025,221.271,205.812
0.485,43.994,1.921,1.921,245.027,221.299,205.720
0.486,44.088,1.917,1.917,245.022,221.319,205.629
0.487,44.179,1.909,1.909,245.013,221.334,205.540
0.489,44.266,1.897,1.897,245.003,221.344,205.453
0.490,44.351,1.884,1.884,244.994,221.352,205.370
0.491,44.430,1.870,1.870,244.987,221.358,205.291
0.492,44.504,1.855,1.855,244.985,221.365,205.217
0.494,44.572,1.842,1.842,244.991,221.374,205.150
0.495,44.635,1.831,1.831,245.005,221.386,205.089
0.496,44.696,1.822,1.822,245.029,221.401,205.036
0.497,44.757,1.815,1.815,245.062,221.419,204.988
0.499,44.819,1.809,1.809,245.103,221.440,204.946
0.500,44.883,1.803,1.803,245.150,221.461,204.908
0.501,44.950,1.796,1.796,245.204,221.483,204.875
0.503,45.020,1.787,1.787,245.263,221.505,204.844
0.504,45.092,1.775,1.775,245.326,221.527,204.816
0.505,45.166,1.760,1.760,245.392,221.546,204.789
0.506,45.242,1.740,1.740,245.461,221.564,204.764
0.508,45.319,1.717,1.717,245.532,221.580,204.738
0.509,45.398,1.692,1.692,245.603,221.596,204.708
0.510,45.480,1.668,1.668,245.674,221.616,204.672
0.511,45.567,1.644,1.645,245.744,221.643,204.627
