"T","Distance","Radius","FreeRadius","X","Y","Z"
0.000,0.000,1.255,1.255,236.983,213.126,208.455
0.001,0.047,1.268,1.268,236.941,213.134,208.475
0.002,0.095,1.280,1.280,236.899,213.143,208.497
0.003,0.144,1.292,1.292,236.859,213.154,208.521
0.004,0.195,1.304,1.304,236.819,213.169,208.550
0.005,0.249,1.315,1.315,236.781,213.188,208.584
0.006,0.309,1.326,1.326,236.745,213.212,208.625
0.007,0.377,1.337,1.337,236.712,213.243,208.675
0.008,0.454,1.347,1.347,236.681,213.282,208.734
0.010,0.543,1.356,1.356,236.653,213.330,208.804
0.011,0.647,1.365,1.365,236.629,213.388,208.887
0.012,0.767,1.374,1.374,236.608,213.455,208.984
0.013,0.904,1.388,1.388,236.588,213.531,209.097
0.014,1.059,1.411,1.411,236.567,213.613,209.226
0.015,1.233,1.445,1.445,236.542,213.699,209.375
0.016,1.427,1.494,1.494,236.511,213.787,209.545
0.017,1.642,1.563,1.563,236.471,213.876,209.738
0.018,1.881,1.655,1.655,236.421,213.962,209.954
0.019,2.144,1.773,1.773,236.358,214.044,210.196
0.020,2.435,1.921,1.921,236.280,214.120,210.467
0.021,2.757,2.101,2.101,236.185,214.188,210.766
0.022,3.105,2.309,2.309,236.073,214.247,211.090
0.023,3.472,2.535,2.535,235.948,214.298,211.431
0.024,3.848,2.773,2.773,235.815,214.340,211.780
0.025,4.223,3.014,3.014,235.677,214.376,212.128
0.026,4.589,3.251,3.251,235.539,214.405,212.465
0.028,4.935,3.475,3.475,235.405,214.427,212.783
0.029,5.251,3.680,3.680,235.279,214.444,213.073
0.030,5.529,3.856,3.856,235.164,214.456,213.326
0.031,5.758,3.997,3.997,235.066,214.464,213.532
0.032,5.930,4.099,4.099,234.987,214.467,213.685
0.033,6.048,4.168,4.168,234.927,214.466,213.787
0.034,6.120,4.207,4.207,234.885,214.461,213.845
0.035,6.155,4.222,4.222,234.859,214.452,213.867
0.036,6.175,4.218,4.218,234.846,214.438,213.860
0.037,6.209,4.200,4.200,234.846,214.419,213.832
0.038,6.258,4.173,4.173,234.855,214.396,213.790
0.039,6.317,4.141,4.141,234.872,214.368,213.741
0.040,6.379,4.110,4.110,234.896,214.335,213.694
0.041,6.440,4.084,4.084,234.924,214.296,213.656
0.042,6.498,4.064,4.064,234.954,214.253,213.632
0.043,6.554,4.051,4.051,234.983,214.206,213.622
0.044,6.608,4.043,4.043,235.009,214.159,213.625
0.046,6.660,4.040,4.040,235.029,214.113,213.639
0.047,6.709,4.043,4.043,235.039,214.070,213.661
0.048,6.757,4.050,4.050,235.036,214.033,213.692
0.049,6.807,4.061,4.061,235.019,214.004,213.728
0.050,6.864,4.077,4.077,234.983,213.984,213.768
0.051,6.936,4.097,4.097,234.925,213.977,213.810
0.052,7.028,4.119,4.119,234.844,213.985,213.853
0.053,7.144,4.145,4.145,234.739,214.006,213.896
0.054,7.281,4.171,4.171,234.613,214.039,213.938
0.055,7.433,4.198,4.198,234.471,214.078,213.979
0.056,7.597,4.225,4.225,234.318,214.121,214.019
0.057,7.766,4.250,4.250,234.159,214.162,214.059
0.058,7.935,4.273,4.273,233.998,214.198,214.097
0.059,8.099,4.293,4.293,233.840,214.225,214.134
0.060,8.255,4.309,4.309,233.690,214.239,214.170
0.061,8.397,4.319,4.319,233.552,214.236,214.204
0.062,8.526,4.325,4.325,233.430,214.212,214.237
0.063,8.643,4.326,4.326,233.326,214.168,214.268
0.065,8.754,4.324,4.324,233.238,214.107,214.297
0.066,8.861,4.318,4.318,233.165,214.034,214.325
0.067,8.965,4.311,4.311,233.105,213.952,214.351
0.068,9.066,4.302,4.302,233.057,213.867,214.374
0.069,9.163,4.293,4.293,233.019,213.781,214.395
0.070,9.252,4.283,4.283,232.989,213.699,214.414
0.071,9.331,4.274,4.274,232.966,213.624,214.430
0.072,9.397,4.266,4.266,232.948,213.562,214.444
0.073,9.447,4.258,4.258,232.934,213.516,214.455
0.074,9.482,4.252,4.252,232.923,213.484,214.464
0.075,9.505,4.246,4.246,232.914,213.463,214.470
0.076,9.520,4.241,4.241,232.907,213.451,214.474
0.077,9.529,4.236,4.236,232.901,213.445,214.477
0.078,9.535,4.231,4.231,232.897,213.441,214.479
0.079,9.542,4.226,4.226,232.892,213.436,214.480
0.080,9.551,4.221,4.221,232.888,213.428,214.481
0.081,9.567,4.216,4.216,232.883,213.413,214.482
0.083,9.592,4.210,4.210,232.877,213.389,214.482
0.084,9.629,4.205,4.205,232.869,213.353,214.484
0.085,9.677,4.199,4.199,232.860,213.306,214.486
0.086,9.735,4.192,4.192,232.848,213.249,214.490
0.087,9.801,4.186,4.186,232.833,213.185,214.497
0.088,9.875,4.179,4.179,232.816,213.114,214.506
0.089,9.955,4.172,4.172,232.795,213.037,214.519
0.090,10.041,4.165,4.165,232.771,212.957,214.535
0.091,10.131,4.157,4.157,232.742,212.874,214.556
0.092,10.224,4.150,4.150,232.710,212.790,214.583
0.093,10.321,4.142,4.142,232.672,212.707,214.614
0.094,10.421,4.135,4.135,232.630,212.625,214.652
0.095,10.522,4.127,4.127,232.584,212.545,214.693
0.096,10.625,4.121,4.121,232.536,212.465,214.738
0.097,10.728,4.115,4.115,232.488,212.387,214.785
0.098,10.830,4.109,4.109,232.439,212.310,214.831
0.099,10.931,4.105,4.105,232.392,212.234,214.877
0.101,11.028,4.101,4.101,232.348,212.159,214.921
0.102,11.121,4.099,4.099,232.308,212.086,214.962
0.103,11.210,4.098,4.098,232.272,212.013,214.997
0.104,11.293,4.098,4.098,232.243,211.941,215.027
0.105,11.370,4.098,4.098,232.221,211.871,215.051
0.106,11.442,4.099,4.099,232.203,211.805,215.070
0.107,11.507,4.101,4.101,232.190,211.743,215.087
0.108,11.565,4.103,4.103,232.180,211.688,215.101
0.109,11.615,4.104,4.104,232.171,211.640,215.115
0.110,11.657,4.106,4.106,232.164,211.602,215.130
0.111,11.689,4.107,4.107,232.156,211.575,215.147
0.112,11.716,4.107,4.107,232.147,211.561,215.168
0.113,11.743,4.107,4.107,232.135,211.561,215.193
0.114,11.781,4.106,4.106,232.121,211.576,215.224
0.115,11.831,4.104,4.104,232.102,211.605,215.261
0.116,11.892,4.100,4.100,232.080,211.643,215.303
0.117,11.962,4.096,4.096,232.054,211.689,215.348
0.119,12.039,4.089,4.089,232.024,211.739,215.398
0.120,12.119,4.081,4.081,231.989,211.790,215.450
0.121,12.201,4.071,4.071,231.951,211.839,215.503
0.122,12.283,4.058,4.058,231.908,211.883,215.558
0.123,12.363,4.044,4.044,231.861,211.918,215.613
0.124,12.442,4.028,4.028,231.809,211.942,215.667
0.125,12.520,4.010,4.010,231.754,211.953,215.720
0.126,12.599,3.990,3.990,231.694,211.951,215.772
0.127,12.679,3.969,3.969,231.632,211.939,215.822
0.128,12.762,3.946,3.946,231.568,211.919,215.870
0.129,12.846,3.922,3.922,231.503,211.893,215.917
0.130,12.930,3.898,3.898,231.439,211.862,215.961
0.131,13.013,3.872,3.872,231.376,211.828,216.003
0.132,13.094,3.846,3.846,231.314,211.793,216.044
0.133,13.171,3.820,3.820,231.256,211.760,216.081
0.134,13.243,3.794,3.794,231.202,211.730,216.116
0.135,13.308,3.769,3.769,231.152,211.703,216.148
0.137,13.367,3.746,3.746,231.106,211.678,216.177
0.138,13.420,3.724,3.724,231.066,211.655,216.202
0.139,13.468,3.705,3.705,231.030,211.632,216.223
0.140,13.511,3.689,3.689,230.999,211.607,216.238
0.141,13.550,3.677,3.677,230.972,211.579,216.249
0.142,13.589,3.668,3.668,230.951,211.547,216.253
0.143,13.630,3.664,3.664,230.935,211.509,216.251
0.144,13.677,3.663,3.663,230.923,211.465,216.243
0.145,13.732,3.664,3.664,230.917,211.412,216.227
0.146,13.796,3.666,3.666,230.915,211.352,216.205
0.147,13.867,3.669,3.669,230.914,211.287,216.178
0.148,13.942,3.671,3.671,230.913,211.217,216.151
0.149,14.019,3.672,3.672,230.909,211.145,216.124
0.150,14.095,3.670,3.670,230.900,211.073,216.100
0.151,14.170,3.664,3.664,230.884,211.002,216.081
0.152,14.243,3.655,3.655,230.859,210.934,216.069
0.153,14.316,3.641,3.641,230.823,210.872,216.068
0.154,14.391,3.625,3.625,230.773,210.816,216.078
0.156,14.475,3.607,3.607,230.707,210.769,216.102
0.157,14.570,3.588,3.588,230.629,210.730,216.138
0.158,14.675,3.568,3.568,230.540,210.699,216.185
0.159,14.786,3.549,3.549,230.446,210.673,216.238
0.160,14.902,3.532,3.532,230.347,210.653,216.295
0.161,15.017,3.517,3.517,230.249,210.638,216.354
0.162,15.129,3.506,3.506,230.154,210.625,216.412
0.163,15.233,3.498,3.498,230.066,210.616,216.467
0.164,15.326,3.493,3.493,229.988,210.607,216.515
0.165,15.402,3.491,3.491,229.923,210.600,216.555
0.166,15.460,3.489,3.489,229.874,210.592,216.584
0.167,15.502,3.489,3.489,229.838,210.584,216.604
0.168,15.531,3.488,3.488,229.814,210.576,216.618
0.169,15.550,3.485,3.485,229.798,210.567,216.626
0.170,15.563,3.481,3.481,229.790,210.558,216.631
0.171,15.574,3.474,3.474,229.786,210.549,216.635
0.172,15.585,3.464,3.464,229.785,210.540,216.639
0.174,15.598,3.450,3.450,229.783,210.529,216.647
0.175,15.614,3.434,3.434,229.780,210.519,216.659
0.176,15.637,3.417,3.417,229.772,210.508,216.678
0.177,15.668,3.400,3.400,229.759,210.497,216.704
0.178,15.705,3.383,3.383,229.742,210.487,216.734
0.179,15.744,3.368,3.368,229.723,210.479,216.767
0.180,15.783,3.355,3.355,229.702,210.474,216.800
0.181,15.819,3.346,3.346,229.682,210.472,216.830
0.182,15.851,3.342,3.342,229.664,210.476,216.856
0.183,15.876,3.342,3.342,229.649,210.486,216.874
0.184,15.898,3.345,3.345,229.639,210.503,216.883
0.185,15.924,3.349,3.349,229.634,210.528,216.881
0.186,15.962,3.352,3.352,229.637,210.562,216.864
0.187,16.011,3.352,3.352,229.646,210.603,216.837
0.188,16.065,3.347,3.347,229.658,210.644,216.804
0.189,16.115,3.335,3.335,229.670,210.682,216.774
0.190,16.153,3.314,3.314,229.680,210.710,216.751
0.192,16.170,3.283,3.283,229.683,210.725,216.742
0.193,16.184,3.238,3.238,229.676,210.720,216.753
0.194,16.235,3.182,3.182,229.658,210.691,216.791
0.195,16.333,3.116,3.116,229.625,210.633,216.862
0.196,16.486,3.044,3.044,229.573,210.540,216.972
0.197,16.700,2.966,2.966,229.502,210.410,217.126
0.198,16.966,2.887,2.887,229.412,210.248,217.318
0.199,17.270,2.807,2.807,229.311,210.064,217.538
0.200,17.600,2.731,2.731,229.201,209.868,217.779
0.201,17.940,2.660,2.660,229.089,209.670,218.032
0.202,18.278,2.597,2.597,228.977,209.478,218.287
0.203,18.600,2.543,2.543,228.873,209.302,218.536
0.204,18.893,2.498,2.498,228.779,209.153,218.769
0.205,19.144,2.460,2.460,228.701,209.039,218.978
0.206,19.341,2.429,2.429,228.643,208.970,219.155
0.207,19.485,2.404,2.404,228.608,208.951,219.293
0.208,19.594,2.383,2.383,228.592,208.975,219.398
0.210,19.690,2.365,2.365,228.590,209.031,219.476
0.211,19.789,2.349,2.349,228.598,209.111,219.533
0.212,19.892,2.335,2.335,228.610,209.204,219.576
0.213,19.997,2.320,2.320,228.622,209.303,219.611
0.214,20.097,2.306,2.306,228.630,209.396,219.644
0.215,20.185,2.292,2.292,228.627,209.476,219.681
0.216,20.260,2.278,2.278,228.611,209.531,219.730
0.217,20.338,2.267,2.267,228.575,209.554,219.795
0.218,20.441,2.257,2.257,228.518,209.541,219.880
0.219,20.575,2.251,2.251,228.443,209.497,219.982
0.220,20.737,2.248,2.248,228.352,209.428,220.097
0.221,20.923,2.248,2.248,228.247,209.341,220.223
0.222,21.127,2.253,2.253,228.130,209.240,220.357
0.223,21.344,2.264,2.264,228.005,209.132,220.497
0.224,21.567,2.278,2.278,227.872,209.022,220.638
0.225,21.789,2.296,2.296,227.736,208.916,220.779
0.226,22.007,2.317,2.317,227.598,208.820,220.916
0.228,22.213,2.340,2.340,227.460,208.739,221.047
0.229,22.408,2.364,2.364,227.324,208.674,221.170
0.230,22.591,2.389,2.389,227.192,208.623,221.285
0.231,22.762,2.414,2.414,227.063,208.583,221.392
0.232,22.923,2.437,2.437,226.939,208.552,221.489
0.233,23.072,2.459,2.459,226.820,208.528,221.577
0.234,23.210,2.479,2.479,226.708,208.509,221.654
0.235,23.335,2.496,2.496,226.604,208.492,221.722
0.236,23.447,2.511,2.511,226.508,208.476,221.778
0.237,23.546,2.524,2.524,226.422,208.457,221.823
0.238,23.633,2.534,2.534,226.346,208.434,221.856
0.239,23.709,2.542,2.542,226.278,208.408,221.880
0.240,23.777,2.548,2.548,226.218,208.378,221.894
0.241,23.840,2.551,2.551,226.164,208.347,221.900
0.242,23.900,2.552,2.552,226.113,208.315,221.901
0.243,23.959,2.550,2.550,226.064,208.283,221.897
0.244,24.016,2.546,2.546,226.016,208.253,221.890
0.246,24.074,2.541,2.541,225.967,208.224,221.882
0.247,24.133,2.535,2.535,225.915,208.198,221.873
0.248,24.194,2.528,2.528,225.858,208.175,221.866
0.249,24.258,2.521,2.521,225.797,208.158,221.862
0.250,24.326,2.515,2.515,225.731,208.143,221.860
0.251,24.395,2.510,2.510,225.662,208.132,221.861
0.252,24.466,2.507,2.507,225.592,208.123,221.864
0.253,24.536,2.506,2.506,225.523,208.115,221.869
0.254,24.604,2.507,2.507,225.455,208.108,221.878
0.255,24.670,2.509,2.509,225.391,208.100,221.888
0.256,24.732,2.512,2.512,225.331,208.091,221.901
0.257,24.789,2.514,2.514,225.277,208.080,221.916
0.258,24.840,2.516,2.516,225.231,208.067,221.934
0.259,24.885,2.515,2.515,225.193,208.051,221.953
0.260,24.925,2.512,2.512,225.163,208.035,221.972
0.261,24.958,2.504,2.504,225.140,208.019,221.989
0.262,24.983,2.493,2.493,225.123,208.005,222.003
0.263,25.000,2.476,2.476,225.112,207.995,222.012
0.265,25.007,2.454,2.454,225.107,207.990,222.013
0.266,25.015,2.429,2.429,225.107,207.993,222.007
0.267,25.035,2.402,2.402,225.111,208.004,221.990
0.268,25.071,2.373,2.373,225.119,208.025,221.961
0.269,25.125,2.344,2.344,225.130,208.057,221.919
0.270,25.191,2.316,2.316,225.142,208.097,221.869
0.271,25.260,2.290,2.290,225.154,208.139,221.816
0.272,25.323,2.267,2.267,225.162,208.179,221.768
0.273,25.370,2.249,2.249,225.163,208.209,221.731
0.274,25.394,2.235,2.235,225.157,208.225,221.714
0.275,25.414,2.227,2.227,225.139,208.220,221.723
0.276,25.474,2.224,2.224,225.108,208.190,221.764
0.277,25.587,2.226,2.226,225.061,208.128,221.845
0.278,25.762,2.235,2.235,224.995,208.028,221.973
0.279,26.005,2.249,2.249,224.910,207.888,222.153
0.280,26.306,2.270,2.270,224.808,207.713,222.376
0.281,26.650,2.297,2.297,224.695,207.511,222.631
0.283,27.023,2.331,2.331,224.575,207.292,222.907
0.284,27.410,2.371,2.371,224.452,207.064,223.194
0.285,27.795,2.417,2.417,224.332,206.836,223.480
0.286,28.164,2.468,2.468,224.219,206.616,223.755
0.287,28.503,2.522,2.522,224.117,206.414,224.006
0.288,28.795,2.578,2.578,224.033,206.236,224.223
0.289,29.028,2.634,2.634,223.969,206.094,224.396
0.290,29.193,2.689,2.689,223.930,205.990,224.517
0.291,29.300,2.743,2.743,223.913,205.919,224.596
0.292,29.362,2.793,2.793,223.916,205.875,224.640
0.293,29.398,2.838,2.838,223.938,205.853,224.658
0.294,29.437,2.877,2.877,223.976,205.845,224.658
0.295,29.490,2.912,2.912,224.028,205.845,224.649
0.296,29.555,2.944,2.944,224.092,205.847,224.640
0.297,29.629,2.974,2.974,224.166,205.845,224.639
0.298,29.714,3.002,3.002,224.249,205.832,224.655
0.299,29.816,3.031,3.031,224.337,205.803,224.696
0.301,29.941,3.061,3.061,224.430,205.755,224.765
0.302,30.087,3.093,3.093,224.525,205.692,224.856
0.303,30.250,3.129,3.129,224.622,205.619,224.966
0.304,30.426,3.169,3.169,224.718,205.538,225.088
0.305,30.608,3.214,3.214,224.812,205.453,225.220
0.306,30.791,3.262,3.262,224.903,205.369,225.354
0.307,30.969,3.311,3.311,224.989,205.289,225.488
0.308,31.136,3.360,3.360,225.068,205.216,225.616
0.309,31.287,3.408,3.408,225.139,205.154,225.733
0.310,31.415,3.454,3.454,225.201,205.108,225.835
0.311,31.521,3.496,3.496,225.254,205.075,225.922
0.312,31.608,3.532,3.532,225.298,205.056,225.995
0.313,31.679,3.562,3.562,225.333,205.046,226.055
0.314,31.736,3.585,3.585,225.360,205.045,226.106
0.315,31.783,3.600,3.600,225.379,205.049,226.147
0.316,31.821,3.609,3.609,225.392,205.058,226.182
0.317,31.853,3.613,3.613,225.398,205.068,226.212
0.319,31.881,3.612,3.612,225.399,205.077,226.238
0.320,31.907,3.607,3.607,225.394,205.084,226.263
0.321,31.933,3.599,3.599,225.384,205.088,226.287
0.322,31.963,3.588,3.588,225.372,205.088,226.314
0.323,31.995,3.576,3.576,225.362,205.088,226.345
0.324,32.033,3.563,3.563,225.354,205.089,226.382
0.325,32.078,3.550,3.550,225.354,205.094,226.427
0.326,32.135,3.538,3.538,225.362,205.105,226.482
0.327,32.208,3.526,3.526,225.383,205.123,226.549
0.328,32.301,3.517,3.517,225.418,205.151,226.631
0.329,32.419,3.509,3.509,225.471,205.191,226.729
0.330,32.567,3.505,3.505,225.545,205.245,226.845
0.331,32.745,3.504,3.504,225.640,205.313,226.979
0.332,32.948,3.507,3.507,225.752,205.392,227.130
0.333,33.171,3.516,3.516,225.877,205.479,227.292
0.334,33.406,3.529,3.529,226.010,205.570,227.462
0.335,33.647,3.547,3.547,226.148,205.662,227.638
0.337,33.889,3.567,3.567,226.286,205.751,227.816
0.338,34.125,3.590,3.590,226.419,205.835,227.992
0.339,34.348,3.612,3.612,226.543,205.909,228.162
0.340,34.554,3.634,3.634,226.654,205.970,228.324
0.341,34.736,3.653,3.653,226.747,206.014,228.474
0.342,34.895,3.669,3.669,226.821,206.041,228.612
0.343,35.037,3.681,3.681,226.879,206.049,228.741
0.344,35.167,3.686,3.686,226.920,206.040,228.864
0.345,35.293,3.686,3.686,226.947,206.013,228.985
0.346,35.423,3.682,3.682,226.962,205.968,229.106
0.347,35.563,3.677,3.677,226.967,205.905,229.230
0.348,35.717,3.673,3.673,226.961,205.825,229.362
0.349,35.890,3.672,3.672,226.949,205.726,229.503
0.350,36.084,3.677,3.677,226.930,205.611,229.658
0.351,36.302,3.690,3.690,226.907,205.478,229.829
0.352,36.539,3.712,3.712,226.881,205.330,230.013
0.353,36.791,3.747,3.747,226.851,205.173,230.207
0.354,37.050,3.795,3.795,226.820,205.010,230.407
0.356,37.312,3.855,3.855,226.786,204.845,230.607
0.357,37.570,3.924,3.924,226.751,204.683,230.804
0.358,37.817,3.997,3.997,226.716,204.528,230.994
0.359,38.049,4.072,4.072,226.680,204.384,231.171
0.360,38.258,4.145,4.145,226.645,204.255,231.333
0.361,38.440,4.213,4.213,226.611,204.146,231.474
0.362,38.589,4.273,4.273,226.579,204.059,231.591
0.363,38.708,4.321,4.321,226.548,203.994,231.686
0.364,38.799,4.353,4.353,226.520,203.948,231.759
0.365,38.866,4.370,4.370,226.494,203.919,231.814
0.366,38.912,4.373,4.373,226.472,203.905,231.851
0.367,38.941,4.366,4.366,226.453,203.903,231.873
0.368,38.960,4.350,4.350,226.438,203.912,231.882
0.369,38.980,4.328,4.328,226.426,203.928,231.879
0.370,39.006,4.304,4.304,226.420,203.950,231.866
0.371,39.039,4.280,4.280,226.418,203.975,231.846
0.372,39.076,4.258,4.258,226.421,204.001,231.820
0.374,39.113,4.241,4.241,226.427,204.026,231.794
0.375,39.145,4.232,4.232,226.435,204.049,231.772
0.376,39.168,4.231,4.231,226.445,204.066,231.759
0.377,39.182,4.236,4.236,226.454,204.077,231.761
0.378,39.204,4.247,4.247,226.462,204.078,231.781
0.379,39.249,4.262,4.262,226.466,204.068,231.825
0.380,39.325,4.280,4.280,226.467,204.045,231.897
0.381,39.437,4.300,4.300,226.463,204.007,232.002
0.382,39.591,4.322,4.322,226.452,203.952,232.146
0.383,39.785,4.345,4.345,226.436,203.881,232.326
0.384,40.011,4.366,4.366,226.419,203.800,232.536
0.385,40.263,4.386,4.386,226.404,203.714,232.772
0.386,40.532,4.404,4.404,226.397,203.627,233.027
0.387,40.812,4.422,4.422,226.401,203.546,233.295
0.388,41.096,4.439,4.439,226.419,203.475,233.569
0.389,41.380,4.454,4.454,226.456,203.419,233.845
0.390,41.659,4.470,4.470,226.515,203.384,234.115
0.392,41.932,4.485,4.485,226.601,203.374,234.374
0.393,42.201,4.500,4.500,226.717,203.393,234.617
0.394,42.471,4.515,4.515,226.859,203.440,234.841
0.395,42.741,4.531,4.531,227.023,203.506,235.046
0.396,43.011,4.547,4.547,227.201,203.585,235.232
0.397,43.277,4.562,4.562,227.389,203.672,235.398
0.398,43.533,4.577,4.577,227.581,203.760,235.545
0.399,43.776,4.590,4.590,227.770,203.841,235.673
0.400,43.998,4.602,4.602,227.952,203.910,235.781
0.401,44.193,4.612,4.612,228.119,203.959,235.868
0.402,44.358,4.620,4.620,228.267,203.984,235.935
0.403,44.491,4.625,4.625,228.392,203.978,235.983
0.404,44.604,4.627,4.627,228.495,203.946,236.015
0.405,44.706,4.626,4.626,228.579,203.893,236.039
0.406,44.805,4.621,4.621,228.647,203.824,236.058
0.407,44.905,4.613,4.613,228.703,203.744,236.080
0.408,45.007,4.603,4.603,228.749,203.657,236.108
0.410,45.112,4.590,4.590,228.789,203.570,236.149
0.411,45.220,4.574,4.574,228.825,203.486,236.208
0.412,45.337,4.556,4.556,228.861,203.412,236.291
0.413,45.470,4.537,4.537,228.899,203.352,236.403
0.414,45.624,4.515,4.515,228.942,203.308,236.545
0.415,45.799,4.492,4.492,228.988,203.277,236.711
0.416,45.990,4.467,4.467,229.036,203.256,236.894
0.417,46.190,4.440,4.440,229.087,203.240,237.088
0.418,46.394,4.411,4.411,229.137,203.226,237.284
0.419,46.594,4.381,4.381,229.188,203.210,237.478
0.420,46.785,4.349,4.349,229.237,203.189,237.660
0.421,46.959,4.314,4.314,229.284,203.159,237.826
0.422,47.113,4.277,4.277,229.327,203.116,237.968
0.423,47.245,4.238,4.238,229.366,203.057,238.079
0.424,47.361,4.197,4.197,229.400,202.982,238.159
0.425,47.471,4.153,4.153,229.429,202.891,238.216
0.426,47.584,4.107,4.107,229.453,202.788,238.253
0.428,47.703,4.057,4.057,229.472,202.673,238.279
0.429,47.830,4.003,4.003,229.484,202.549,238.298
0.430,47.963,3.944,3.944,229.491,202.417,238.316
0.431,48.103,3.881,3.881,229.491,202.279,238.341
