"T","Distance","Radius","FreeRadius","X","Y","Z"
0.000,0.000,0.920,0.920,183.534,164.535,184.602
0.001,0.305,0.984,0.984,183.744,164.382,184.441
0.002,0.607,1.048,1.048,183.952,164.233,184.281
0.003,0.904,1.110,1.110,184.160,164.088,184.125
0.005,1.194,1.169,1.169,184.365,163.950,183.974
0.006,1.474,1.223,1.223,184.568,163.823,183.830
0.007,1.742,1.272,1.272,184.769,163.708,183.693
0.008,1.997,1.316,1.316,184.965,163.607,183.567
0.009,2.236,1.351,1.351,185.158,163.524,183.453
0.010,2.458,1.379,1.379,185.345,163.460,183.351
0.012,2.664,1.399,1.399,185.528,163.418,183.265
0.013,2.855,1.412,1.412,185.704,163.400,183.194
0.014,3.034,1.422,1.422,185.874,163.402,183.139
0.015,3.202,1.431,1.431,186.036,163.419,183.097
0.016,3.363,1.440,1.440,186.191,163.450,183.068
0.017,3.515,1.452,1.452,186.337,163.489,183.050
0.019,3.659,1.470,1.470,186.474,163.533,183.042
0.020,3.795,1.496,1.496,186.602,163.578,183.042
0.021,3.919,1.531,1.531,186.719,163.620,183.051
0.022,4.033,1.574,1.574,186.825,163.656,183.065
0.023,4.133,1.624,1.624,186.920,163.682,183.085
0.024,4.220,1.678,1.678,187.003,163.697,183.108
0.026,4.297,1.731,1.731,187.076,163.703,183.132
0.027,4.366,1.782,1.782,187.141,163.705,183.154
0.028,4.426,1.828,1.828,187.198,163.707,183.173
0.029,4.480,1.866,1.866,187.250,163.713,183.185
0.030,4.530,1.893,1.893,187.299,163.726,183.188
0.031,4.583,1.907,1.907,187.345,163.751,183.180
0.033,4.648,1.910,1.910,187.390,163.792,183.157
0.034,4.733,1.903,1.903,187.435,163.852,183.119
0.035,4.845,1.891,1.891,187.483,163.935,183.061
0.036,4.986,1.874,1.874,187.534,164.043,182.984
0.037,5.152,1.855,1.855,187.586,164.169,182.892
0.038,5.336,1.838,1.838,187.639,164.311,182.787
0.040,5.534,1.824,1.824,187.692,164.464,182.673
0.041,5.739,1.815,1.815,187.742,164.623,182.553
0.042,5.946,1.814,1.814,187.790,164.783,182.431
0.043,6.150,1.819,1.819,187.833,164.941,182.310
0.044,6.344,1.829,1.829,187.871,165.092,182.193
0.045,6.523,1.844,1.844,187.903,165.230,182.084
0.047,6.682,1.862,1.862,187.928,165.353,181.986
0.048,6.819,1.883,1.883,187.945,165.458,181.900
0.049,6.937,1.905,1.905,187.956,165.548,181.825
0.050,7.037,1.928,1.928,187.960,165.624,181.760
0.051,7.123,1.950,1.950,187.961,165.689,181.703
0.052,7.198,1.972,1.972,187.957,165.744,181.653
0.054,7.263,1.993,1.993,187.951,165.792,181.609
0.055,7.321,2.013,2.013,187.944,165.834,181.570
0.056,7.375,2.032,2.032,187.935,165.873,181.534
0.057,7.426,2.050,2.050,187.927,165.910,181.500
0.058,7.476,2.067,2.067,187.920,165.948,181.467
0.059,7.526,2.083,2.083,187.914,165.986,181.435
0.061,7.576,2.097,2.097,187.908,166.024,181.403
0.062,7.623,2.110,2.110,187.903,166.060,181.373
0.063,7.668,2.122,2.122,187.897,166.093,181.344
0.064,7.709,2.133,2.133,187.891,166.124,181.317
0.065,7.746,2.142,2.142,187.882,166.149,181.292
0.066,7.778,2.151,2.151,187.871,166.169,181.269
0.068,7.806,2.159,2.159,187.858,166.182,181.249
0.069,7.831,2.166,2.166,187.841,166.188,181.231
0.070,7.857,2.172,2.172,187.820,166.185,181.216
0.071,7.883,2.177,2.177,187.798,166.176,181.205
0.072,7.910,2.182,2.182,187.776,166.164,181.198
0.073,7.932,2.184,2.184,187.758,166.151,181.196
0.075,7.948,2.184,2.184,187.746,166.141,181.198
0.076,7.958,2.181,2.181,187.743,166.137,181.207
0.077,7.976,2.172,2.172,187.752,166.141,181.222
0.078,8.012,2.158,2.158,187.775,166.159,181.244
0.079,8.072,2.138,2.138,187.815,166.191,181.274
0.080,8.160,2.110,2.110,187.876,166.242,181.311
0.081,8.278,2.073,2.073,187.958,166.314,181.357
0.083,8.424,2.029,2.029,188.060,166.404,181.411
0.084,8.590,1.978,1.978,188.176,166.507,181.470
0.085,8.771,1.922,1.922,188.301,166.621,181.534
0.086,8.960,1.863,1.863,188.431,166.740,181.600
0.087,9.150,1.802,1.802,188.562,166.861,181.668
0.088,9.336,1.740,1.740,188.688,166.979,181.736
0.090,9.510,1.680,1.680,188.805,167.090,181.803
0.091,9.667,1.622,1.622,188.908,167.189,181.866
0.092,9.801,1.567,1.567,188.993,167.273,181.925
0.093,9.907,1.518,1.518,189.057,167.340,181.978
0.094,9.990,1.475,1.475,189.104,167.390,182.024
0.095,10.056,1.440,1.440,189.141,167.431,182.062
0.097,10.111,1.412,1.412,189.173,167.465,182.091
0.098,10.162,1.395,1.395,189.207,167.497,182.111
0.099,10.217,1.388,1.388,189.249,167.532,182.119
0.100,10.286,1.392,1.392,189.304,167.573,182.115
0.101,10.381,1.410,1.410,189.380,167.626,182.099
0.102,10.508,1.440,1.440,189.483,167.695,182.069
0.104,10.676,1.479,1.479,189.618,167.784,182.024
0.105,10.888,1.526,1.526,189.788,167.896,181.964
0.106,11.136,1.577,1.577,189.987,168.026,181.893
0.107,11.409,1.629,1.629,190.206,168.170,181.814
0.108,11.699,1.678,1.678,190.437,168.323,181.731
0.109,11.994,1.723,1.723,190.672,168.481,181.649
0.111,12.284,1.759,1.759,190.903,168.638,181.569
0.112,12.560,1.785,1.785,191.121,168.791,181.497
0.113,12.811,1.799,1.799,191.319,168.933,181.436
0.114,13.028,1.805,1.805,191.488,169.062,181.390
0.115,13.202,1.804,1.804,191.620,169.170,181.362
0.116,13.329,1.800,1.800,191.711,169.258,181.354
0.118,13.419,1.794,1.794,191.766,169.330,181.362
0.119,13.486,1.790,1.790,191.789,169.389,181.382
0.120,13.545,1.788,1.788,191.788,169.442,181.410
0.121,13.609,1.793,1.793,191.766,169.492,181.442
0.122,13.680,1.805,1.805,191.730,169.544,181.475
0.123,13.760,1.825,1.825,191.684,169.603,181.503
0.125,13.850,1.851,1.851,191.634,169.675,181.523
0.126,13.950,1.881,1.881,191.586,169.763,181.531
0.127,14.068,1.915,1.915,191.544,169.872,181.523
0.128,14.206,1.951,1.951,191.512,170.004,181.498
0.129,14.363,1.987,1.987,191.489,170.154,181.458
0.130,14.534,2.023,2.023,191.474,170.318,181.407
0.132,14.717,2.057,2.057,191.466,170.490,181.348
0.133,14.906,2.087,2.087,191.464,170.668,181.284
0.134,15.095,2.115,2.115,191.467,170.845,181.218
0.135,15.280,2.140,2.140,191.475,171.018,181.153
0.136,15.456,2.162,2.162,191.486,171.182,181.092
0.137,15.616,2.183,2.183,191.499,171.333,181.038
0.139,15.757,2.201,2.201,191.515,171.466,180.994
0.140,15.876,2.217,2.217,191.531,171.580,180.962
0.141,15.976,2.232,2.232,191.548,171.675,180.939
0.142,16.058,2.246,2.246,191.564,171.754,180.926
0.143,16.123,2.258,2.258,191.580,171.817,180.921
0.144,16.174,2.269,2.269,191.595,171.865,180.923
0.146,16.212,2.278,2.278,191.608,171.901,180.932
0.147,16.242,2.287,2.287,191.619,171.924,180.947
0.148,16.266,2.294,2.294,191.627,171.937,180.965
0.149,16.289,2.301,2.301,191.631,171.941,180.988
0.150,16.315,2.307,2.307,191.632,171.937,181.013
0.151,16.342,2.311,2.311,191.630,171.927,181.038
0.153,16.370,2.315,2.315,191.625,171.915,181.063
0.154,16.394,2.318,2.318,191.618,171.905,181.083
0.155,16.411,2.320,2.320,191.611,171.899,181.098
0.156,16.421,2.320,2.320,191.605,171.901,181.105
0.157,16.436,2.320,2.320,191.600,171.915,181.102
0.158,16.469,2.318,2.318,191.598,171.943,181.086
0.159,16.525,2.315,2.315,191.600,171.990,181.055
0.161,16.608,2.311,2.311,191.606,172.059,181.008
0.162,16.723,2.305,2.305,191.617,172.152,180.942
0.163,16.867,2.298,2.298,191.634,172.267,180.858
0.164,17.034,2.289,2.289,191.657,172.399,180.758
0.165,17.220,2.281,2.281,191.683,172.544,180.644
0.166,17.419,2.273,2.273,191.714,172.696,180.519
0.168,17.627,2.267,2.267,191.750,172.850,180.385
0.169,17.838,2.262,2.262,191.788,173.002,180.243
0.170,18.048,2.260,2.260,191.830,173.147,180.097
0.171,18.252,2.261,2.261,191.875,173.280,179.948
0.172,18.447,2.265,2.265,191.922,173.395,179.799
0.173,18.629,2.274,2.274,191.970,173.490,179.651
0.175,18.800,2.286,2.286,192.021,173.566,179.506
0.176,18.961,2.302,2.302,192.072,173.625,179.365
0.177,19.114,2.321,2.321,192.122,173.672,179.229
0.178,19.257,2.343,2.343,192.173,173.710,179.100
0.179,19.391,2.367,2.367,192.221,173.742,178.979
0.180,19.516,2.393,2.393,192.268,173.771,178.867
0.182,19.631,2.422,2.422,192.311,173.802,178.765
0.183,19.736,2.451,2.451,192.351,173.838,178.675
0.184,19.832,2.482,2.482,192.387,173.882,178.597
0.185,19.922,2.514,2.514,192.419,173.936,178.533
0.186,20.009,2.545,2.545,192.446,173.998,178.479
0.187,20.093,2.576,2.576,192.471,174.065,178.435
0.189,20.176,2.605,2.605,192.493,174.135,178.397
0.190,20.256,2.633,2.633,192.516,174.205,178.363
0.191,20.332,2.659,2.659,192.538,174.270,178.331
0.192,20.404,2.682,2.682,192.562,174.329,178.298
0.193,20.471,2.702,2.702,192.588,174.378,178.261
0.194,20.534,2.719,2.719,192.618,174.415,178.219
0.196,20.599,2.736,2.736,192.652,174.436,178.169
0.197,20.670,2.752,2.752,192.691,174.441,178.109
0.198,20.749,2.769,2.769,192.734,174.435,178.044
0.199,20.831,2.788,2.788,192.780,174.422,177.976
0.200,20.914,2.810,2.810,192.827,174.411,177.909
0.201,20.992,2.835,2.835,192.873,174.405,177.847
0.203,21.062,2.865,2.865,192.919,174.411,177.794
0.204,21.126,2.899,2.899,192.961,174.436,177.752
0.205,21.193,2.937,2.937,193.000,174.483,177.726
0.206,21.278,2.979,2.979,193.033,174.561,177.720
0.207,21.395,3.022,3.022,193.059,174.674,177.737
0.208,21.551,3.066,3.066,193.079,174.824,177.777
0.210,21.744,3.110,3.110,193.096,175.005,177.839
0.211,21.965,3.153,3.153,193.113,175.211,177.920
0.212,22.208,3.194,3.194,193.132,175.434,178.015
0.213,22.467,3.233,3.233,193.158,175.668,178.122
0.214,22.734,3.270,3.270,193.194,175.906,178.236
0.215,23.003,3.306,3.306,193.243,176.142,178.356
0.217,23.268,3.343,3.343,193.309,176.368,178.478
0.218,23.525,3.381,3.381,193.394,176.579,178.598
0.219,23.771,3.422,3.422,193.502,176.767,178.713
0.220,24.007,3.468,3.468,193.635,176.930,178.821
0.221,24.239,3.519,3.519,193.791,177.070,178.921
0.222,24.472,3.577,3.577,193.969,177.190,179.012
0.224,24.712,3.642,3.642,194.168,177.293,179.095
0.225,24.959,3.714,3.714,194.388,177.382,179.167
0.226,25.217,3.791,3.791,194.626,177.459,179.230
0.227,25.487,3.874,3.874,194.882,177.527,179.281
0.228,25.769,3.961,3.961,195.154,177.590,179.320
0.229,26.064,4.050,4.050,195.442,177.649,179.347
0.231,26.372,4.142,4.142,195.744,177.709,179.361
0.232,26.689,4.234,4.234,196.055,177.768,179.364
0.233,27.007,4.327,4.327,196.368,177.828,179.365
0.234,27.318,4.419,4.419,196.672,177.887,179.367
0.235,27.612,4.508,4.508,196.961,177.945,179.379
0.236,27.884,4.595,4.595,197.226,178.000,179.407
0.237,28.127,4.677,4.677,197.457,178.052,179.456
0.239,28.338,4.754,4.754,197.648,178.100,179.534
0.240,28.524,4.824,4.824,197.789,178.144,179.646
0.241,28.702,4.886,4.886,197.872,178.183,179.800
0.242,28.906,4.940,4.940,197.890,178.216,180.000
0.243,29.155,4.984,4.984,197.845,178.244,180.243
0.244,29.447,5.019,5.019,197.750,178.266,180.519
0.246,29.774,5.045,5.045,197.616,178.285,180.816
0.247,30.123,5.065,5.065,197.454,178.301,181.125
0.248,30.482,5.078,5.078,197.275,178.315,181.435
0.249,30.835,5.086,5.086,197.090,178.328,181.736
0.250,31.168,5.091,5.091,196.911,178.341,182.017
0.251,31.467,5.093,5.093,196.749,178.354,182.268
0.253,31.717,5.094,5.094,196.615,178.369,182.478
0.254,31.904,5.094,5.094,196.519,178.387,182.639
0.255,32.033,5.094,5.094,196.461,178.406,182.751
0.256,32.112,5.094,5.094,196.433,178.426,182.822
0.257,32.154,5.094,5.094,196.429,178.446,182.859
0.258,32.179,5.093,5.093,196.444,178.465,182.868
0.260,32.213,5.093,5.093,196.471,178.482,182.855
0.261,32.257,5.093,5.093,196.503,178.496,182.829
0.262,32.304,5.093,5.093,196.534,178.506,182.795
0.263,32.346,5.094,5.094,196.558,178.510,182.761
0.264,32.376,5.095,5.095,196.568,178.508,182.732
0.265,32.397,5.096,5.096,196.560,178.500,182.715
0.267,32.425,5.097,5.097,196.536,178.486,182.711
0.268,32.467,5.096,5.096,196.498,178.470,182.717
0.269,32.519,5.093,5.093,196.450,178.455,182.732
0.270,32.578,5.089,5.089,196.397,178.442,182.754
0.271,32.640,5.082,5.082,196.343,178.434,182.783
0.272,32.702,5.071,5.071,196.290,178.434,182.816
0.274,32.763,5.058,5.058,196.243,178.445,182.852
0.275,32.821,5.041,5.041,196.205,178.468,182.889
0.276,32.880,5.021,5.021,196.180,178.507,182.927
0.277,32.947,4.999,4.999,196.171,178.563,182.963
0.278,33.026,4.976,4.976,196.176,178.633,182.998
0.279,33.116,4.953,4.953,196.190,178.714,183.034
0.281,33.214,4.929,4.929,196.209,178.803,183.069
0.282,33.317,4.906,4.906,196.232,178.897,183.106
0.283,33.422,4.885,4.885,196.253,178.992,183.145
0.284,33.525,4.865,4.865,196.269,179.085,183.186
0.285,33.623,4.847,4.847,196.276,179.173,183.230
0.286,33.715,4.831,4.831,196.272,179.251,183.278
0.288,33.802,4.815,4.815,196.252,179.318,183.331
0.289,33.889,4.800,4.800,196.215,179.371,183.388
0.290,33.979,4.786,4.786,196.163,179.411,183.449
0.291,34.074,4.772,4.772,196.100,179.443,183.513
0.292,34.174,4.757,4.757,196.029,179.467,183.579
0.293,34.277,4.743,4.743,195.953,179.487,183.646
0.295,34.380,4.727,4.727,195.876,179.505,183.712
0.296,34.481,4.711,4.711,195.801,179.524,183.778
0.297,34.578,4.694,4.694,195.732,179.546,183.841
0.298,34.668,4.675,4.675,195.671,179.573,183.901
0.299,34.750,4.655,4.655,195.623,179.609,183.958
0.300,34.826,4.633,4.633,195.588,179.653,184.009
0.302,34.900,4.610,4.610,195.566,179.706,184.056
0.303,34.974,4.584,4.584,195.554,179.766,184.098
0.304,35.049,4.556,4.556,195.551,179.830,184.136
0.305,35.125,4.527,4.527,195.555,179.899,184.169
0.306,35.202,4.497,4.497,195.564,179.969,184.198
0.307,35.278,4.468,4.468,195.576,180.040,184.223
0.308,35.353,4.441,4.441,195.590,180.111,184.243
0.310,35.424,4.416,4.416,195.603,180.179,184.259
0.311,35.491,4.395,4.395,195.614,180.244,184.270
0.312,35.554,4.378,4.378,195.622,180.306,184.279
0.313,35.614,4.368,4.368,195.627,180.365,184.289
0.314,35.675,4.363,4.363,195.629,180.424,184.303
0.315,35.739,4.363,4.363,195.629,180.484,184.325
0.317,35.811,4.365,4.365,195.625,180.548,184.358
0.318,35.894,4.366,4.366,195.618,180.616,184.406
0.319,35.995,4.363,4.363,195.609,180.691,184.472
0.320,36.116,4.355,4.355,195.596,180.775,184.559
0.321,36.264,4.339,4.339,195.581,180.868,184.672
0.322,36.440,4.311,4.311,195.564,180.974,184.813
0.324,36.646,4.270,4.270,195.544,181.090,184.981
0.325,36.872,4.216,4.216,195.524,181.215,185.169
0.326,37.114,4.151,4.151,195.503,181.345,185.372
0.327,37.364,4.079,4.079,195.483,181.477,185.582
0.328,37.615,4.003,4.003,195.465,181.610,185.795
0.329,37.860,3.927,3.927,195.450,181.739,186.003
0.331,38.093,3.854,3.854,195.439,181.863,186.200
0.332,38.307,3.787,3.787,195.432,181.978,186.380
0.333,38.495,3.730,3.730,195.431,182.082,186.537
0.334,38.651,3.686,3.686,195.437,182.172,186.664
0.335,38.776,3.655,3.655,195.449,182.247,186.763
0.336,38.874,3.635,3.635,195.466,182.311,186.836
0.338,38.951,3.624,3.624,195.487,182.363,186.888
0.339,39.011,3.622,3.622,195.510,182.408,186.922
0.340,39.059,3.625,3.625,195.533,182.444,186.942
0.341,39.099,3.632,3.632,195.556,182.476,186.951
0.342,39.135,3.641,3.641,195.578,182.504,186.954
0.343,39.167,3.650,3.650,195.596,182.530,186.955
0.345,39.196,3.658,3.658,195.610,182.556,186.956
0.346,39.226,3.664,3.664,195.618,182.584,186.962
0.347,39.257,3.665,3.665,195.619,182.613,186.974
0.348,39.293,3.662,3.662,195.613,182.645,186.990
0.349,39.335,3.652,3.652,195.598,182.678,187.010
0.350,39.384,3.636,3.636,195.575,182.714,187.035
0.352,39.442,3.611,3.611,195.541,182.751,187.063
0.353,39.509,3.576,3.576,195.497,182.790,187.095
0.354,39.586,3.532,3.532,195.441,182.832,187.129
0.355,39.674,3.476,3.476,195.373,182.875,187.165
0.356,39.774,3.413,3.413,195.292,182.920,187.203
0.357,39.887,3.344,3.344,195.198,182.966,187.243
0.359,40.012,3.271,3.271,195.091,183.016,187.283
0.360,40.147,3.198,3.198,194.973,183.068,187.324
0.361,40.291,3.126,3.126,194.847,183.124,187.365
0.362,40.443,3.058,3.058,194.713,183.185,187.406
0.363,40.602,2.997,2.997,194.575,183.251,187.445
0.364,40.765,2.944,2.944,194.433,183.322,187.482
0.366,40.932,2.900,2.900,194.289,183.400,187.518
0.367,41.102,2.862,2.862,194.145,183.486,187.551
0.368,41.274,2.829,2.829,194.004,183.578,187.581
0.369,41.447,2.800,2.800,193.865,183.679,187.607
0.370,41.620,2.772,2.772,193.731,183.786,187.631
0.371,41.792,2.743,2.743,193.602,183.896,187.653
0.373,41.960,2.713,2.713,193.478,184.008,187.674
0.374,42.123,2.678,2.678,193.360,184.118,187.695
0.375,42.279,2.639,2.639,193.248,184.225,187.716
0.376,42.427,2.594,2.594,193.143,184.327,187.739
0.377,42.565,2.548,2.548,193.046,184.421,187.764
0.378,42.690,2.499,2.499,192.956,184.504,187.792
0.380,42.803,2.452,2.452,192.875,184.575,187.824
0.381,42.902,2.406,2.406,192.803,184.633,187.861
0.382,42.993,2.363,2.363,192.737,184.680,187.902
0.383,43.079,2.325,2.325,192.677,184.721,187.947
0.384,43.164,2.294,2.294,192.620,184.759,187.998
0.385,43.251,2.270,2.270,192.565,184.797,188.053
0.386,43.342,2.252,2.252,192.510,184.839,188.112
0.388,43.441,2.240,2.240,192.453,184.888,188.177
0.389,43.551,2.232,2.232,192.392,184.949,188.246
0.390,43.676,2.228,2.228,192.326,185.025,188.319
0.391,43.818,2.226,2.226,192.253,185.119,188.397
0.392,43.979,2.226,2.226,192.173,185.232,188.480
0.393,44.155,2.227,2.227,192.087,185.360,188.564
0.395,44.339,2.228,2.228,191.999,185.498,188.649
0.396,44.528,2.229,2.229,191.909,185.641,188.732
0.397,44.715,2.230,2.230,191.821,185.786,188.811
0.398,44.895,2.231,2.231,191.736,185.927,188.885
0.399,45.063,2.233,2.233,191.657,186.060,188.951
0.400,45.214,2.237,2.237,191.586,186.179,189.008
0.402,45.341,2.242,2.242,191.525,186.281,189.053
0.403,45.440,2.248,2.248,191.476,186.361,189.086
0.404,45.510,2.257,2.257,191.441,186.419,189.105
0.405,45.558,2.268,2.268,191.416,186.457,189.116
0.406,45.588,2.282,2.282,191.399,186.482,189.123
0.407,45.607,2.298,2.298,191.390,186.498,189.128
0.409,45.621,2.317,2.317,191.385,186.508,189.136
0.410,45.639,2.338,2.338,191.383,186.518,189.151
0.411,45.668,2.362,2.362,191.383,186.532,189.176
0.412,45.714,2.388,2.388,191.380,186.554,189.217
0.413,45.783,2.417,2.417,191.375,186.589,189.276
0.414,45.880,2.448,2.448,191.364,186.641,189.357
0.416,46.005,2.481,2.481,191.348,186.711,189.460
0.417,46.153,2.514,2.514,191.328,186.794,189.580
0.418,46.318,2.546,2.546,191.304,186.887,189.714
0.419,46.494,2.575,2.575,191.278,186.986,189.857
0.420,46.675,2.600,2.600,191.250,187.088,190.005
0.421,46.856,2.618,2.618,191.223,187.188,190.153
0.423,47.031,2.629,2.629,191.196,187.283,190.298
0.424,47.194,2.630,2.630,191.171,187.369,190.434
0.425,47.340,2.621,2.621,191.148,187.442,190.558
0.426,47.463,2.601,2.601,191.130,187.499,190.665
0.427,47.564,2.574,2.574,191.113,187.540,190.755
0.428,47.647,2.541,2.542,191.093,187.570,190.831
0.430,47.718,2.507,2.507,191.067,187.590,190.893
0.431,47.782,2.473,2.474,191.029,187.604,190.944
0.432,47.850,2.443,2.443,190.976,187.616,190.985
0.433,47.930,2.419,2.419,190.904,187.629,191.018
0.434,48.031,2.403,2.403,190.808,187.645,191.045
0.435,48.159,2.398,2.398,190.685,187.669,191.067
0.437,48.319,2.403,2.403,190.530,187.702,191.087
0.438,48.515,2.418,2.417,190.340,187.749,191.106
0.439,48.743,2.440,2.439,190.120,187.805,191.128
0.440,48.994,2.468,2.467,189.879,187.866,191.157
0.441,49.258,2.500,2.499,189.624,187.926,191.197
0.442,49.528,2.536,2.535,189.365,187.979,191.251
0.444,49.796,2.573,2.573,189.111,188.020,191.324
0.445,50.058,2.611,2.611,188.868,188.043,191.420
0.446,50.311,2.648,2.649,188.647,188.044,191.543
0.447,50.558,2.684,2.686,188.455,188.016,191.696
0.448,50.809,2.719,2.722,188.302,187.954,191.885
0.449,51.078,2.753,2.757,188.192,187.855,192.110
0.451,51.372,2.786,2.790,188.123,187.726,192.365
0.452,51.689,2.818,2.822,188.085,187.576,192.641
0.453,52.018,2.849,2.852,188.071,187.415,192.928
0.454,52.349,2.879,2.880,188.073,187.254,193.218
0.455,52.669,2.907,2.906,188.083,187.103,193.499
0.456,52.964,2.934,2.929,188.093,186.970,193.763
0.458,53.223,2.959,2.951,188.095,186.867,194.000
0.459,53.434,2.982,2.970,188.082,186.803,194.201
0.460,53.595,3.002,2.988,188.044,186.788,194.356
0.461,53.724,3.019,3.004,187.978,186.829,194.460
0.462,53.865,3.033,3.019,187.888,186.920,194.519
0.463,54.037,3.042,3.033,187.782,187.053,194.543
0.464,54.241,3.047,3.045,187.665,187.220,194.540
0.466,54.470,3.046,3.057,187.545,187.413,194.521
0.467,54.712,3.041,3.065,187.428,187.624,194.494
0.468,54.959,3.028,3.069,187.322,187.846,194.469
0.469,55.200,3.009,3.067,187.234,188.070,194.456
0.470,55.428,2.981,3.056,187.170,188.288,194.463
0.471,55.638,2.945,3.034,187.137,188.492,194.500
0.473,55.837,2.900,3.000,187.139,188.678,194.571
0.474,56.036,2.844,2.951,187.172,188.847,194.671
