"T","Distance","Radius","FreeRadius","X","Y","Z"
0.000,0.000,0.920,0.920,183.534,164.535,184.602
0.001,0.256,0.944,0.944,183.710,164.407,184.466
0.003,0.511,0.968,0.968,183.886,164.280,184.332
0.004,0.763,0.992,0.992,184.061,164.156,184.199
0.005,1.010,1.015,1.015,184.234,164.037,184.070
0.006,1.252,1.039,1.039,184.407,163.924,183.944
0.008,1.486,1.062,1.062,184.577,163.818,183.823
0.009,1.712,1.084,1.084,184.745,163.720,183.709
0.010,1.928,1.106,1.106,184.911,163.633,183.601
0.011,2.134,1.127,1.127,185.074,163.558,183.501
0.013,2.328,1.149,1.149,185.234,163.495,183.410
0.014,2.511,1.171,1.171,185.391,163.448,183.329
0.015,2.681,1.194,1.194,185.543,163.416,183.258
0.017,2.842,1.220,1.220,185.691,163.401,183.199
0.018,2.993,1.249,1.249,185.835,163.400,183.150
0.019,3.137,1.282,1.282,185.973,163.411,183.112
0.020,3.276,1.318,1.318,186.107,163.432,183.082
0.022,3.408,1.360,1.360,186.234,163.460,183.061
0.023,3.535,1.405,1.405,186.355,163.494,183.048
0.024,3.655,1.453,1.453,186.470,163.531,183.042
0.025,3.770,1.503,1.503,186.578,163.569,183.041
0.027,3.877,1.554,1.554,186.679,163.606,183.047
0.028,3.977,1.604,1.604,186.773,163.639,183.057
0.029,4.068,1.653,1.653,186.858,163.666,183.071
0.030,4.149,1.699,1.699,186.935,163.685,183.089
0.032,4.222,1.742,1.742,187.004,163.697,183.108
0.033,4.287,1.782,1.782,187.066,163.702,183.128
0.034,4.346,1.817,1.817,187.122,163.705,183.148
0.036,4.400,1.847,1.847,187.172,163.706,183.165
0.037,4.448,1.871,1.871,187.218,163.709,183.178
0.038,4.492,1.890,1.890,187.261,163.715,183.187
0.039,4.534,1.902,1.902,187.301,163.728,183.188
0.041,4.578,1.908,1.908,187.340,163.748,183.181
0.042,4.630,1.906,1.906,187.378,163.780,183.165
0.043,4.695,1.899,1.899,187.416,163.824,183.137
0.044,4.777,1.888,1.888,187.455,163.884,183.097
0.046,4.880,1.875,1.875,187.496,163.961,183.043
0.047,5.002,1.860,1.860,187.539,164.055,182.976
0.048,5.142,1.845,1.845,187.583,164.161,182.898
0.050,5.295,1.833,1.833,187.628,164.279,182.811
0.051,5.458,1.824,1.824,187.672,164.405,182.717
0.052,5.629,1.819,1.819,187.715,164.537,182.618
0.053,5.802,1.818,1.818,187.757,164.672,182.516
0.055,5.976,1.820,1.820,187.796,164.806,182.413
0.056,6.147,1.826,1.826,187.832,164.939,182.311
0.057,6.312,1.834,1.834,187.865,165.066,182.213
0.058,6.466,1.845,1.845,187.893,165.186,182.119
0.060,6.607,1.858,1.858,187.917,165.295,182.033
0.061,6.733,1.872,1.872,187.935,165.391,181.955
0.062,6.843,1.888,1.888,187.947,165.476,181.885
0.064,6.940,1.905,1.905,187.956,165.550,181.823
0.065,7.025,1.922,1.922,187.960,165.615,181.768
0.066,7.100,1.940,1.940,187.961,165.671,181.718
0.067,7.166,1.959,1.959,187.959,165.720,181.674
0.069,7.225,1.977,1.977,187.955,165.764,181.635
0.070,7.278,1.995,1.995,187.950,165.802,181.599
0.071,7.326,2.013,2.013,187.943,165.837,181.567
0.072,7.371,2.029,2.029,187.936,165.870,181.537
0.074,7.414,2.046,2.046,187.929,165.901,181.508
0.075,7.456,2.061,2.061,187.922,165.932,181.480
0.076,7.499,2.076,2.076,187.917,165.964,181.453
0.078,7.541,2.090,2.090,187.912,165.996,181.426
0.079,7.582,2.103,2.103,187.908,166.028,181.400
0.080,7.622,2.115,2.115,187.903,166.058,181.375
0.081,7.659,2.126,2.126,187.899,166.087,181.350
0.083,7.695,2.136,2.136,187.893,166.113,181.327
0.084,7.728,2.146,2.146,187.887,166.136,181.305
0.085,7.757,2.154,2.154,187.879,166.156,181.284
0.086,7.783,2.162,2.162,187.869,166.172,181.266
0.088,7.807,2.170,2.170,187.858,166.182,181.249
0.089,7.828,2.177,2.177,187.844,166.188,181.233
0.090,7.849,2.184,2.184,187.827,166.187,181.220
0.091,7.871,2.190,2.190,187.809,166.181,181.210
0.093,7.894,2.196,2.196,187.790,166.172,181.202
0.094,7.915,2.201,2.201,187.772,166.161,181.197
0.095,7.934,2.203,2.203,187.757,166.150,181.196
0.097,7.947,2.201,2.201,187.747,166.142,181.198
0.098,7.956,2.195,2.195,187.742,166.137,181.204
0.099,7.967,2.183,2.183,187.746,166.138,181.215
0.100,7.989,2.166,2.166,187.759,166.147,181.230
0.102,8.026,2.141,2.141,187.783,166.165,181.251
0.103,8.080,2.109,2.109,187.820,166.195,181.277
0.104,8.153,2.071,2.071,187.871,166.238,181.308
0.105,8.249,2.028,2.028,187.937,166.295,181.346
0.107,8.365,1.983,1.983,188.018,166.366,181.389
0.108,8.498,1.935,1.935,188.110,166.449,181.437
0.109,8.643,1.887,1.887,188.211,166.539,181.488
0.111,8.796,1.839,1.839,188.318,166.636,181.542
0.112,8.955,1.793,1.793,188.427,166.737,181.598
0.113,9.116,1.750,1.750,188.537,166.838,181.655
0.114,9.273,1.709,1.709,188.645,166.938,181.713
0.116,9.425,1.670,1.670,188.747,167.034,181.769
0.117,9.566,1.633,1.633,188.841,167.124,181.824
0.118,9.693,1.598,1.598,188.925,167.205,181.877
0.119,9.803,1.565,1.565,188.994,167.274,181.926
0.121,9.894,1.534,1.534,189.049,167.331,181.971
0.122,9.968,1.505,1.505,189.091,167.376,182.011
0.123,10.028,1.478,1.478,189.125,167.413,182.046
0.125,10.079,1.453,1.453,189.153,167.444,182.074
0.126,10.124,1.433,1.433,189.180,167.472,182.096
0.127,10.166,1.417,1.417,189.209,167.499,182.111
0.128,10.212,1.406,1.406,189.244,167.528,182.119
0.130,10.267,1.402,1.402,189.288,167.561,182.117
0.131,10.339,1.404,1.404,189.345,167.602,182.107
0.132,10.431,1.415,1.415,189.420,167.653,182.088
0.133,10.548,1.432,1.432,189.514,167.716,182.058
0.135,10.696,1.456,1.456,189.633,167.795,182.018
0.136,10.875,1.484,1.484,189.777,167.889,181.968
0.137,11.080,1.515,1.515,189.941,167.996,181.909
0.139,11.305,1.549,1.549,190.121,168.114,181.844
0.140,11.543,1.583,1.583,190.312,168.240,181.776
0.141,11.789,1.617,1.617,190.508,168.371,181.706
0.142,12.037,1.649,1.649,190.706,168.504,181.637
0.144,12.281,1.679,1.679,190.899,168.636,181.571
0.145,12.515,1.707,1.707,191.084,168.765,181.509
0.146,12.732,1.733,1.733,191.256,168.887,181.455
0.147,12.927,1.757,1.757,191.409,169.000,181.411
0.149,13.095,1.778,1.778,191.538,169.102,181.378
0.150,13.230,1.798,1.798,191.640,169.188,181.359
0.151,13.333,1.816,1.816,191.713,169.261,181.354
0.152,13.410,1.832,1.832,191.760,169.321,181.360
0.154,13.469,1.846,1.846,191.785,169.373,181.375
0.155,13.520,1.859,1.859,191.791,169.419,181.397
0.156,13.571,1.872,1.872,191.781,169.461,181.423
0.158,13.626,1.884,1.884,191.759,169.503,181.450
0.159,13.687,1.895,1.895,191.727,169.548,181.477
0.160,13.755,1.907,1.907,191.688,169.598,181.501
0.161,13.828,1.920,1.920,191.646,169.656,181.519
0.163,13.910,1.934,1.934,191.605,169.725,181.529
0.164,14.001,1.949,1.949,191.566,169.807,181.530
0.165,14.106,1.964,1.964,191.534,169.906,181.518
0.166,14.225,1.981,1.981,191.509,170.021,181.494
0.168,14.357,1.999,1.999,191.490,170.147,181.460
0.169,14.500,2.017,2.017,191.476,170.283,181.419
0.170,14.652,2.036,2.036,191.468,170.427,181.371
0.172,14.809,2.056,2.056,191.464,170.575,181.318
0.173,14.968,2.076,2.076,191.464,170.724,181.263
0.174,15.127,2.096,2.096,191.468,170.873,181.208
0.175,15.282,2.117,2.117,191.475,171.018,181.153
0.177,15.430,2.137,2.137,191.484,171.157,181.102
0.178,15.569,2.157,2.157,191.495,171.286,181.054
0.179,15.694,2.176,2.176,191.507,171.405,181.014
0.180,15.805,2.194,2.194,191.520,171.509,180.981
0.182,15.900,2.211,2.211,191.534,171.600,180.956
0.183,15.982,2.226,2.226,191.548,171.679,180.938
0.184,16.051,2.239,2.239,191.562,171.745,180.927
0.186,16.108,2.251,2.251,191.576,171.801,180.922
0.187,16.155,2.262,2.262,191.589,171.846,180.922
0.188,16.193,2.272,2.272,191.600,171.881,180.926
0.189,16.222,2.282,2.282,191.611,171.908,180.935
0.191,16.246,2.291,2.291,191.619,171.926,180.948
0.192,16.267,2.299,2.299,191.626,171.937,180.964
0.193,16.286,2.308,2.308,191.630,171.941,180.982
0.194,16.306,2.316,2.316,191.632,171.939,181.003
0.196,16.329,2.323,2.323,191.631,171.933,181.024
0.197,16.352,2.329,2.329,191.628,171.924,181.045
0.198,16.375,2.333,2.333,191.624,171.914,181.065
0.199,16.395,2.336,2.336,191.618,171.905,181.083
0.201,16.411,2.336,2.336,191.613,171.899,181.096
0.202,16.420,2.333,2.333,191.607,171.899,181.104
0.203,16.429,2.328,2.328,191.602,171.906,181.105
0.205,16.447,2.320,2.320,191.599,171.922,181.098
0.206,16.479,2.310,2.310,191.598,171.950,181.082
0.207,16.528,2.299,2.299,191.600,171.991,181.055
0.208,16.596,2.288,2.288,191.605,172.047,181.016
0.210,16.687,2.276,2.276,191.613,172.121,180.964
0.211,16.799,2.265,2.265,191.626,172.211,180.899
0.212,16.929,2.256,2.256,191.642,172.315,180.822
0.213,17.075,2.248,2.248,191.662,172.430,180.735
0.215,17.232,2.243,2.243,191.685,172.552,180.638
0.216,17.400,2.239,2.239,191.711,172.680,180.533
0.217,17.573,2.236,2.236,191.740,172.810,180.422
0.219,17.750,2.236,2.236,191.772,172.939,180.305
0.220,17.928,2.237,2.237,191.806,173.064,180.184
0.221,18.103,2.240,2.240,191.842,173.183,180.059
0.222,18.274,2.245,2.245,191.879,173.292,179.934
0.224,18.438,2.251,2.251,191.919,173.389,179.808
0.225,18.593,2.259,2.259,191.959,173.471,179.682
0.226,18.740,2.269,2.269,192.001,173.539,179.559
0.227,18.880,2.280,2.280,192.044,173.594,179.438
0.229,19.013,2.294,2.294,192.086,173.640,179.320
0.230,19.139,2.309,2.309,192.129,173.677,179.207
0.231,19.260,2.327,2.327,192.170,173.708,179.098
0.233,19.374,2.347,2.347,192.211,173.735,178.996
0.234,19.481,2.369,2.369,192.251,173.760,178.899
0.235,19.581,2.393,2.393,192.289,173.786,178.811
0.236,19.673,2.419,2.419,192.325,173.813,178.730
0.238,19.759,2.446,2.446,192.358,173.845,178.658
0.239,19.838,2.474,2.474,192.388,173.883,178.596
0.240,19.912,2.504,2.504,192.416,173.929,178.543
0.241,19.984,2.533,2.533,192.440,173.980,178.499
0.243,20.055,2.563,2.563,192.463,174.036,178.463
0.244,20.125,2.593,2.593,192.484,174.095,178.431
0.245,20.194,2.622,2.622,192.503,174.155,178.403
0.247,20.260,2.651,2.651,192.522,174.213,178.376
0.248,20.325,2.677,2.677,192.542,174.268,178.350
0.249,20.386,2.702,2.702,192.561,174.319,178.322
0.250,20.444,2.724,2.724,192.582,174.363,178.291
0.252,20.499,2.744,2.744,192.604,174.399,178.255
0.253,20.555,2.759,2.759,192.628,174.424,178.211
0.254,20.614,2.772,2.772,192.655,174.437,178.160
0.255,20.681,2.781,2.781,192.685,174.438,178.100
0.257,20.755,2.788,2.788,192.717,174.431,178.034
0.258,20.832,2.793,2.793,192.751,174.419,177.966
0.259,20.909,2.798,2.798,192.787,174.406,177.899
0.260,20.983,2.801,2.801,192.823,174.395,177.836
0.262,21.050,2.805,2.805,192.861,174.391,177.779
0.263,21.110,2.810,2.810,192.898,174.397,177.733
0.264,21.163,2.817,2.817,192.935,174.416,177.700
0.266,21.218,2.828,2.828,192.971,174.453,177.683
0.267,21.286,2.845,2.845,193.006,174.511,177.686
0.268,21.379,2.870,2.870,193.039,174.594,177.711
0.269,21.505,2.905,2.905,193.070,174.706,177.761
0.271,21.665,2.952,2.952,193.099,174.844,177.836
0.272,21.853,3.014,3.014,193.127,175.006,177.928
0.273,22.063,3.091,3.091,193.155,175.185,178.034
0.274,22.287,3.183,3.183,193.182,175.377,178.146
0.276,22.519,3.285,3.285,193.211,175.576,178.261
0.277,22.752,3.391,3.391,193.242,175.779,178.371
0.278,22.979,3.495,3.495,193.275,175.981,178.472
0.280,23.195,3.591,3.591,193.311,176.175,178.558
0.281,23.394,3.675,3.675,193.351,176.358,178.623
0.282,23.571,3.740,3.740,193.396,176.525,178.662
0.283,23.725,3.780,3.780,193.446,176.671,178.670
0.285,23.861,3.794,3.794,193.502,176.792,178.641
0.286,23.991,3.784,3.784,193.560,176.889,178.577
0.287,24.127,3.751,3.751,193.616,176.969,178.482
0.288,24.273,3.700,3.700,193.663,177.035,178.361
0.290,24.431,3.631,3.631,193.698,177.092,178.218
0.291,24.603,3.548,3.548,193.716,177.146,178.056
0.292,24.787,3.453,3.453,193.711,177.200,177.880
0.294,24.984,3.349,3.349,193.678,177.261,177.695
0.295,25.199,3.238,3.238,193.614,177.332,177.503
0.296,25.433,3.126,3.126,193.511,177.418,177.310
0.297,25.695,3.017,3.017,193.367,177.525,177.120
0.299,25.991,2.916,2.916,193.175,177.656,176.937
0.300,26.328,2.826,2.826,192.934,177.815,176.764
0.301,26.702,2.753,2.753,192.650,177.998,176.601
0.302,27.107,2.701,2.701,192.333,178.199,176.449
0.304,27.535,2.674,2.674,191.990,178.412,176.308
0.305,27.976,2.672,2.672,191.631,178.632,176.179
0.306,28.421,2.690,2.690,191.263,178.854,176.060
0.307,28.861,2.723,2.723,190.897,179.072,175.952
0.309,29.286,2.767,2.767,190.539,179.280,175.856
0.310,29.686,2.816,2.816,190.200,179.474,175.771
0.311,30.051,2.865,2.865,189.887,179.647,175.698
0.313,30.372,2.909,2.909,189.609,179.795,175.636
0.314,30.638,2.944,2.944,189.375,179.911,175.585
0.315,30.846,2.969,2.969,189.189,179.995,175.546
0.316,31.002,2.985,2.985,189.046,180.052,175.516
0.318,31.114,2.994,2.994,188.943,180.088,175.494
0.319,31.188,2.997,2.997,188.874,180.109,175.478
0.320,31.230,2.997,2.997,188.835,180.120,175.466
0.321,31.249,2.996,2.996,188.821,180.129,175.457
0.323,31.265,2.995,2.995,188.828,180.141,175.449
0.324,31.298,2.997,2.997,188.852,180.161,175.439
0.325,31.349,3.001,3.001,188.888,180.196,175.427
0.327,31.422,3.008,3.008,188.931,180.252,175.411
0.328,31.519,3.018,3.018,188.976,180.335,175.389
0.329,31.646,3.031,3.031,189.020,180.451,175.359
0.330,31.803,3.047,3.047,189.061,180.598,175.322
0.332,31.987,3.067,3.067,189.099,180.773,175.279
0.333,32.192,3.089,3.089,189.136,180.969,175.231
0.334,32.414,3.115,3.115,189.171,181.182,175.180
0.335,32.647,3.144,3.144,189.205,181.406,175.128
0.337,32.885,3.174,3.174,189.240,181.636,175.076
0.338,33.125,3.204,3.204,189.275,181.867,175.026
0.339,33.359,3.235,3.235,189.312,182.094,174.978
0.341,33.584,3.263,3.263,189.351,182.311,174.936
0.342,33.794,3.289,3.289,189.393,182.514,174.900
0.343,33.984,3.311,3.311,189.438,182.696,174.871
0.344,34.151,3.329,3.329,189.488,182.854,174.851
0.346,34.295,3.343,3.343,189.541,182.988,174.840
0.347,34.420,3.352,3.352,189.595,183.100,174.834
0.348,34.528,3.359,3.359,189.651,183.193,174.833
0.349,34.622,3.364,3.364,189.706,183.269,174.835
0.351,34.704,3.368,3.368,189.760,183.330,174.838
0.352,34.775,3.371,3.371,189.811,183.380,174.839
0.353,34.836,3.374,3.374,189.858,183.419,174.838
0.355,34.890,3.379,3.379,189.900,183.452,174.831
0.356,34.937,3.384,3.384,189.936,183.480,174.819
0.357,34.980,3.389,3.389,189.964,183.505,174.798
0.358,35.025,3.395,3.395,189.983,183.531,174.767
0.360,35.076,3.399,3.399,189.994,183.559,174.725
0.361,35.137,3.402,3.402,189.996,183.588,174.672
0.362,35.210,3.403,3.403,189.992,183.621,174.607
0.363,35.293,3.402,3.402,189.985,183.655,174.531
0.365,35.387,3.398,3.398,189.976,183.692,174.446
0.366,35.491,3.392,3.392,189.966,183.732,174.350
0.367,35.605,3.385,3.385,189.959,183.774,174.244
0.368,35.729,3.377,3.377,189.955,183.818,174.128
0.370,35.862,3.371,3.371,189.957,183.865,174.004
0.371,36.005,3.367,3.367,189.967,183.915,173.870
0.372,36.158,3.365,3.365,189.987,183.967,173.728
0.374,36.321,3.369,3.369,190.018,184.022,173.578
0.375,36.494,3.377,3.377,190.062,184.080,173.420
0.376,36.676,3.390,3.390,190.115,184.140,173.257
0.377,36.863,3.406,3.406,190.177,184.202,173.092
0.379,37.053,3.425,3.425,190.246,184.265,172.927
0.380,37.243,3.446,3.446,190.320,184.331,172.764
0.381,37.432,3.468,3.468,190.396,184.397,172.605
0.382,37.615,3.490,3.490,190.473,184.464,172.453
0.384,37.791,3.511,3.511,190.550,184.532,172.310
0.385,37.956,3.529,3.529,190.624,184.600,172.179
0.386,38.108,3.545,3.545,190.693,184.668,172.062
0.388,38.245,3.559,3.559,190.756,184.736,171.960
0.389,38.365,3.568,3.568,190.810,184.803,171.878
0.390,38.468,3.574,3.574,190.856,184.869,171.813
0.391,38.559,3.575,3.575,190.894,184.935,171.764
0.393,38.640,3.571,3.571,190.925,185.002,171.728
0.394,38.716,3.561,3.561,190.949,185.069,171.704
0.395,38.788,3.546,3.546,190.967,185.137,171.687
0.396,38.858,3.526,3.526,190.980,185.205,171.677
0.398,38.930,3.501,3.501,190.988,185.276,171.671
0.399,39.002,3.473,3.473,190.993,185.348,171.666
0.400,39.076,3.442,3.442,190.994,185.422,171.660
0.402,39.154,3.410,3.410,190.993,185.499,171.651
0.403,39.235,3.377,3.377,190.990,185.578,171.636
0.404,39.321,3.344,3.344,190.986,185.661,171.613
0.405,39.412,3.312,3.312,190.980,185.747,171.581
0.407,39.511,3.280,3.280,190.972,185.837,171.542
0.408,39.617,3.249,3.250,190.960,185.931,171.495
0.409,39.730,3.219,3.219,190.945,186.030,171.441
0.410,39.852,3.188,3.188,190.924,186.133,171.379
0.412,39.983,3.157,3.158,190.898,186.242,171.311
0.413,40.124,3.126,3.126,190.865,186.356,171.237
0.414,40.274,3.094,3.094,190.825,186.476,171.156
0.416,40.434,3.062,3.062,190.777,186.603,171.070
0.417,40.606,3.030,3.030,190.720,186.736,170.977
0.418,40.789,3.001,3.000,190.653,186.876,170.880
0.419,40.984,2.975,2.975,190.576,187.022,170.778
0.421,41.188,2.955,2.955,190.491,187.174,170.672
0.422,41.399,2.942,2.942,190.399,187.330,170.563
0.423,41.615,2.938,2.937,190.302,187.487,170.451
0.424,41.833,2.943,2.943,190.201,187.644,170.338
0.426,42.050,2.960,2.960,190.100,187.799,170.225
0.427,42.264,2.986,2.987,189.998,187.950,170.111
0.428,42.473,3.020,3.022,189.899,188.096,169.999
0.429,42.674,3.060,3.062,189.804,188.234,169.890
0.431,42.864,3.105,3.107,189.714,188.363,169.783
0.432,43.041,3.152,3.154,189.632,188.482,169.679
0.433,43.203,3.200,3.202,189.559,188.587,169.581
0.435,43.349,3.248,3.248,189.496,188.679,169.487
0.436,43.482,3.294,3.292,189.440,188.761,169.398
0.437,43.604,3.338,3.333,189.391,188.834,169.314
0.438,43.718,3.380,3.373,189.346,188.901,169.233
0.440,43.826,3.420,3.412,189.303,188.964,169.156
0.441,43.931,3.459,3.450,189.262,189.026,169.082
0.442,44.035,3.495,3.487,189.219,189.088,169.010
0.443,44.141,3.529,3.525,189.174,189.154,168.941
0.445,44.251,3.562,3.564,189.124,189.226,168.874
0.446,44.368,3.593,3.603,189.068,189.305,168.808
0.447,44.496,3.624,3.645,189.004,189.395,168.744
0.449,44.637,3.656,3.688,188.931,189.497,168.680
0.450,44.791,3.690,3.732,188.848,189.610,168.618
0.451,44.955,3.727,3.779,188.758,189.733,168.556
0.452,45.126,3.769,3.829,188.663,189.862,168.497
0.454,45.301,3.816,3.881,188.565,189.995,168.439
0.455,45.476,3.870,3.936,188.466,190.129,168.385
0.456,45.648,3.931,3.994,188.368,190.260,168.334
0.457,45.813,3.996,4.053,188.273,190.388,168.287
0.459,45.969,4.063,4.111,188.183,190.508,168.243
0.460,46.112,4.129,4.166,188.100,190.617,168.205
0.461,46.238,4.192,4.218,188.027,190.714,168.172
0.463,46.344,4.249,4.264,187.965,190.796,168.144
0.464,46.427,4.298,4.303,187.916,190.860,168.123
0.465,46.489,4.335,4.333,187.880,190.907,168.107
0.466,46.532,4.360,4.353,187.855,190.940,168.095
0.468,46.559,4.374,4.365,187.840,190.961,168.087
0.469,46.573,4.380,4.370,187.834,190.973,168.082
0.470,46.578,4.379,4.370,187.836,190.977,168.079
0.471,46.587,4.374,4.367,187.844,190.977,168.078
0.473,46.601,4.365,4.360,187.858,190.973,168.076
0.474,46.619,4.355,4.353,187.875,190.970,168.075
0.475,46.639,4.345,4.346,187.896,190.969,168.071
0.476,46.662,4.338,4.341,187.918,190.973,168.066
0.478,46.688,4.332,4.337,187.940,190.983,168.057
0.479,46.719,4.328,4.334,187.961,191.002,168.045
0.480,46.756,4.325,4.332,187.982,191.028,168.029
0.482,46.798,4.325,4.332,188.002,191.060,168.012
0.483,46.844,4.326,4.334,188.021,191.097,167.992
0.484,46.893,4.329,4.337,188.039,191.137,167.971
0.485,46.943,4.334,4.341,188.055,191.180,167.949
0.487,46.993,4.340,4.346,188.071,191.223,167.928
0.488,47.042,4.347,4.352,188.085,191.265,167.907
0.489,47.089,4.355,4.359,188.097,191.305,167.888
0.490,47.131,4.363,4.366,188.108,191.342,167.870
0.492,47.167,4.371,4.373,188.117,191.374,167.855
0.493,47.196,4.379,4.380,188.125,191.399,167.844
0.494,47.218,4.385,4.386,188.131,191.419,167.836
0.496,47.235,4.390,4.390,188.135,191.433,167.830
0.497,47.247,4.394,4.394,188.139,191.444,167.825
0.498,47.257,4.396,4.397,188.142,191.453,167.821
0.499,47.267,4.398,4.400,188.144,191.461,167.816
0.501,47.278,4.399,4.404,188.147,191.470,167.810
0.502,47.292,4.401,4.410,188.149,191.481,167.802
0.503,47.311,4.403,4.417,188.153,191.495,167.789
0.504,47.337,4.406,4.427,188.157,191.515,167.773
0.506,47.371,4.410,4.440,188.163,191.540,167.751
0.507,47.416,4.416,4.455,188.170,191.574,167.722
0.508,47.473,4.423,4.474,188.179,191.617,167.686
0.510,47.540,4.431,4.493,188.189,191.669,167.643
0.511,47.618,4.441,4.514,188.199,191.727,167.594
0.512,47.703,4.452,4.536,188.208,191.791,167.539
0.513,47.793,4.464,4.556,188.214,191.858,167.479
0.515,47.887,4.477,4.576,188.217,191.927,167.414
0.516,47.984,4.491,4.594,188.214,191.996,167.346
0.517,48.082,4.506,4.610,188.205,192.063,167.276
0.518,48.180,4.522,4.625,188.189,192.127,167.203
