"T","Distance","Radius","FreeRadius","X","Y","Z"
0.000,0.000,1.119,1.119,321.503,296.648,304.511
0.001,0.143,1.190,1.190,321.423,296.543,304.457
0.002,0.285,1.261,1.261,321.344,296.438,304.403
0.003,0.424,1.330,1.330,321.266,296.337,304.349
0.004,0.559,1.398,1.398,321.190,296.239,304.295
0.005,0.688,1.464,1.464,321.117,296.147,304.241
0.006,0.811,1.527,1.527,321.047,296.061,304.187
0.007,0.926,1.587,1.587,320.982,295.983,304.134
0.008,1.032,1.643,1.643,320.922,295.913,304.081
0.009,1.128,1.694,1.694,320.868,295.855,304.028
0.010,1.213,1.741,1.741,320.820,295.808,303.975
0.011,1.288,1.782,1.782,320.779,295.774,303.923
0.012,1.354,1.819,1.819,320.745,295.751,303.871
0.013,1.413,1.851,1.851,320.717,295.736,303.820
0.014,1.467,1.879,1.879,320.695,295.729,303.772
0.015,1.516,1.904,1.904,320.678,295.725,303.726
0.016,1.561,1.926,1.926,320.665,295.722,303.683
0.017,1.602,1.946,1.946,320.656,295.719,303.643
0.018,1.639,1.963,1.963,320.650,295.712,303.608
0.019,1.672,1.979,1.979,320.647,295.700,303.577
0.021,1.705,1.994,1.994,320.646,295.680,303.551
0.022,1.742,2.009,2.009,320.647,295.649,303.531
0.023,1.786,2.023,2.023,320.648,295.608,303.516
0.024,1.837,2.037,2.037,320.651,295.558,303.505
0.025,1.896,2.051,2.051,320.654,295.499,303.497
0.026,1.962,2.066,2.066,320.657,295.434,303.491
0.027,2.034,2.082,2.082,320.661,295.363,303.485
0.028,2.110,2.099,2.099,320.665,295.287,303.479
0.029,2.189,2.117,2.117,320.669,295.208,303.472
0.030,2.271,2.137,2.137,320.672,295.126,303.462
0.031,2.355,2.159,2.159,320.674,295.044,303.449
0.032,2.439,2.183,2.183,320.676,294.962,303.430
0.033,2.523,2.208,2.208,320.678,294.881,303.409
0.034,2.605,2.233,2.233,320.680,294.801,303.389
0.035,2.684,2.258,2.258,320.685,294.723,303.374
0.036,2.760,2.282,2.282,320.693,294.649,303.369
0.037,2.833,2.304,2.304,320.706,294.577,303.376
0.038,2.908,2.324,2.324,320.725,294.509,303.402
0.039,2.992,2.340,2.340,320.752,294.445,303.448
0.040,3.092,2.353,2.353,320.787,294.386,303.521
0.041,3.216,2.360,2.360,320.832,294.332,303.624
0.042,3.371,2.363,2.363,320.888,294.284,303.760
0.043,3.559,2.362,2.362,320.956,294.243,303.930
0.044,3.771,2.358,2.358,321.032,294.207,304.125
0.045,4.001,2.351,2.351,321.116,294.177,304.338
0.046,4.241,2.341,2.341,321.204,294.153,304.560
0.047,4.483,2.330,2.330,321.295,294.135,304.783
0.048,4.719,2.318,2.318,321.387,294.122,304.999
0.049,4.939,2.306,2.306,321.477,294.114,305.201
0.050,5.138,2.293,2.293,321.564,294.112,305.379
0.051,5.306,2.282,2.282,321.645,294.114,305.526
0.052,5.437,2.272,2.272,321.719,294.122,305.634
0.053,5.530,2.262,2.262,321.783,294.133,305.700
0.054,5.593,2.254,2.254,321.836,294.146,305.731
0.055,5.637,2.246,2.246,321.879,294.157,305.733
0.056,5.672,2.240,2.240,321.910,294.164,305.717
0.057,5.705,2.234,2.234,321.929,294.162,305.690
0.058,5.738,2.230,2.230,321.934,294.150,305.660
0.059,5.774,2.226,2.226,321.926,294.125,305.636
0.061,5.823,2.223,2.223,321.903,294.083,305.626
0.062,5.896,2.221,2.221,321.865,294.022,305.637
0.063,6.003,2.221,2.221,321.811,293.939,305.678
0.064,6.152,2.221,2.221,321.742,293.831,305.755
0.065,6.335,2.223,2.223,321.667,293.706,305.864
0.066,6.542,2.227,2.227,321.593,293.567,305.999
0.067,6.765,2.232,2.232,321.530,293.422,306.156
0.068,6.995,2.239,2.239,321.487,293.276,306.328
0.069,7.226,2.249,2.249,321.472,293.136,306.511
0.070,7.454,2.260,2.260,321.496,293.007,306.698
0.071,7.684,2.275,2.275,321.567,292.895,306.886
0.072,7.922,2.291,2.291,321.693,292.807,307.067
0.073,8.184,2.310,2.310,321.885,292.748,307.237
0.074,8.489,2.331,2.331,322.147,292.724,307.391
0.075,8.841,2.352,2.352,322.468,292.732,307.534
0.076,9.229,2.374,2.374,322.829,292.767,307.670
0.077,9.641,2.396,2.396,323.215,292.827,307.805
0.078,10.064,2.417,2.417,323.606,292.905,307.944
0.079,10.481,2.437,2.437,323.985,292.998,308.094
0.080,10.882,2.456,2.456,324.334,293.103,308.259
0.081,11.253,2.473,2.473,324.636,293.213,308.446
0.082,11.592,2.487,2.487,324.872,293.326,308.659
0.083,11.902,2.499,2.499,325.026,293.437,308.905
0.084,12.209,2.511,2.511,325.082,293.541,309.188
0.085,12.541,2.522,2.522,325.045,293.638,309.503
0.086,12.907,2.533,2.533,324.931,293.727,309.839
0.087,13.304,2.544,2.544,324.755,293.809,310.186
0.088,13.723,2.558,2.558,324.533,293.884,310.533
0.089,14.150,2.573,2.573,324.280,293.951,310.871
0.090,14.568,2.591,2.591,324.013,294.010,311.188
0.091,14.962,2.612,2.612,323.748,294.063,311.474
0.092,15.314,2.637,2.637,323.499,294.107,311.719
0.093,15.607,2.664,2.664,323.282,294.145,311.912
0.094,15.823,2.694,2.694,323.113,294.175,312.044
0.095,15.965,2.725,2.725,322.995,294.198,312.117
0.096,16.045,2.757,2.757,322.921,294.214,312.143
0.097,16.083,2.789,2.789,322.885,294.224,312.134
0.098,16.115,2.821,2.821,322.881,294.230,312.103
0.099,16.162,2.851,2.851,322.902,294.230,312.061
0.101,16.219,2.880,2.880,322.943,294.226,312.021
0.102,16.279,2.906,2.906,322.996,294.218,311.995
0.103,16.339,2.930,2.930,323.056,294.208,311.994
0.104,16.411,2.953,2.953,323.115,294.195,312.031
0.105,16.514,2.974,2.974,323.169,294.179,312.119
0.106,16.661,2.994,2.994,323.212,294.163,312.258
0.107,16.847,3.015,3.015,323.247,294.145,312.439
0.108,17.063,3.036,3.036,323.274,294.127,312.653
0.109,17.301,3.059,3.059,323.293,294.110,312.889
0.110,17.549,3.084,3.084,323.306,294.093,313.137
0.111,17.800,3.112,3.112,323.312,294.078,313.387
0.112,18.042,3.143,3.143,323.313,294.065,313.629
0.113,18.266,3.177,3.177,323.309,294.054,313.852
0.114,18.461,3.214,3.214,323.300,294.047,314.047
0.115,18.617,3.253,3.253,323.289,294.043,314.203
0.116,18.732,3.292,3.293,323.274,294.043,314.317
0.117,18.813,3.333,3.333,323.257,294.043,314.396
0.118,18.868,3.373,3.374,323.238,294.043,314.447
0.119,18.907,3.413,3.413,323.216,294.039,314.480
0.120,18.941,3.452,3.452,323.192,294.029,314.502
0.121,18.979,3.488,3.488,323.166,294.012,314.522
0.122,19.026,3.523,3.522,323.138,293.983,314.547
0.123,19.090,3.554,3.554,323.108,293.942,314.587
0.124,19.180,3.585,3.585,323.077,293.886,314.650
0.125,19.303,3.615,3.615,323.045,293.813,314.743
0.126,19.464,3.645,3.645,323.012,293.721,314.872
0.127,19.658,3.675,3.675,322.978,293.614,315.030
0.128,19.877,3.707,3.707,322.944,293.496,315.211
0.129,20.112,3.741,3.741,322.910,293.371,315.407
0.130,20.354,3.778,3.778,322.878,293.243,315.610
0.131,20.597,3.819,3.819,322.846,293.116,315.814
0.132,20.831,3.863,3.863,322.817,292.994,316.012
0.133,21.048,3.910,3.910,322.790,292.880,316.195
0.134,21.240,3.959,3.959,322.765,292.779,316.356
0.135,21.398,4.008,4.008,322.744,292.695,316.489
0.136,21.517,4.056,4.056,322.727,292.631,316.587
0.137,21.599,4.101,4.102,322.713,292.585,316.654
0.138,21.649,4.142,4.143,322.702,292.555,316.692
0.139,21.673,4.178,4.179,322.694,292.538,316.708
0.141,21.682,4.208,4.208,322.688,292.533,316.705
0.142,21.700,4.229,4.229,322.684,292.535,316.688
0.143,21.728,4.242,4.241,322.682,292.544,316.661
0.144,21.762,4.247,4.246,322.680,292.556,316.629
0.145,21.797,4.244,4.243,322.679,292.568,316.597
0.146,21.828,4.237,4.235,322.679,292.580,316.568
0.147,21.850,4.224,4.222,322.678,292.587,316.547
0.148,21.863,4.208,4.206,322.676,292.588,316.535
0.149,21.870,4.190,4.187,322.673,292.583,316.532
0.150,21.885,4.170,4.168,322.668,292.569,316.537
0.151,21.914,4.150,4.149,322.660,292.545,316.552
0.152,21.956,4.131,4.131,322.649,292.511,316.574
0.153,22.014,4.114,4.116,322.633,292.465,316.605
0.154,22.089,4.101,4.105,322.613,292.405,316.645
0.155,22.181,4.094,4.099,322.587,292.331,316.692
0.156,22.291,4.093,4.100,322.555,292.240,316.748
0.157,22.422,4.101,4.109,322.516,292.133,316.811
0.158,22.573,4.118,4.127,322.471,292.008,316.883
0.159,22.741,4.148,4.156,322.419,291.870,316.963
0.160,22.927,4.191,4.196,322.361,291.718,317.054
0.161,23.128,4.248,4.251,322.298,291.556,317.155
0.162,23.343,4.322,4.319,322.231,291.385,317.266
0.163,23.572,4.411,4.403,322.159,291.207,317.390
0.164,23.812,4.514,4.498,322.084,291.024,317.526
0.165,24.063,4.626,4.604,322.005,290.838,317.675
0.166,24.324,4.745,4.717,321.924,290.650,317.838
0.167,24.595,4.867,4.837,321.841,290.463,318.016
0.168,24.873,4.990,4.959,321.757,290.279,318.206
0.169,25.154,5.110,5.082,321.672,290.098,318.403
0.170,25.434,5.225,5.205,321.587,289.922,318.604
0.171,25.709,5.331,5.324,321.504,289.752,318.803
0.172,25.973,5.425,5.437,321.423,289.591,318.996
0.173,26.223,5.507,5.543,321.344,289.439,319.178
0.174,26.453,5.576,5.641,321.269,289.298,319.344
0.175,26.661,5.635,5.731,321.198,289.169,319.490
0.176,26.840,5.684,5.810,321.133,289.053,319.611
0.177,26.988,5.725,5.879,321.074,288.952,319.702
0.178,27.104,5.756,5.937,321.022,288.868,319.762
0.179,27.192,5.781,5.982,320.977,288.799,319.794
0.181,27.258,5.799,6.014,320.939,288.746,319.802
0.182,27.306,5.812,6.032,320.909,288.710,319.790
0.183,27.347,5.821,6.035,320.887,288.690,319.761
0.184,27.391,5.825,6.024,320.874,288.686,319.720
0.185,27.442,5.825,6.002,320.869,288.698,319.671
0.186,27.504,5.821,5.971,320.873,288.728,319.616
0.187,27.578,5.813,5.933,320.887,288.773,319.560
0.188,27.663,5.801,5.890,320.910,288.836,319.507
0.189,27.758,5.785,5.845,320.942,288.913,319.460
0.190,27.857,5.766,5.799,320.978,288.996,319.420
0.191,27.950,5.742,5.755,321.013,289.076,319.389
0.192,28.027,5.715,5.716,321.044,289.144,319.368
0.193,28.079,5.684,5.683,321.065,289.190,319.359
0.194,28.098,5.650,5.654,321.071,289.207,319.363
0.195,28.129,5.613,5.630,321.058,289.185,319.381
0.196,28.215,5.573,5.607,321.021,289.115,319.414
0.197,28.367,5.530,5.585,320.955,288.987,319.465
0.198,28.595,5.485,5.561,320.856,288.794,319.534
0.199,28.905,5.437,5.534,320.722,288.529,319.621
0.200,29.287,5.388,5.502,320.556,288.201,319.724
0.201,29.725,5.337,5.464,320.365,287.823,319.838
0.202,30.207,5.284,5.418,320.157,287.405,319.958
0.203,30.717,5.230,5.363,319.938,286.960,320.080
0.204,31.243,5.176,5.301,319.714,286.501,320.199
0.205,31.768,5.122,5.233,319.492,286.037,320.311
0.206,32.281,5.070,5.164,319.279,285.582,320.411
0.207,32.766,5.020,5.094,319.081,285.147,320.496
0.208,33.210,4.973,5.027,318.905,284.745,320.561
0.209,33.602,4.930,4.965,318.757,284.384,320.601
0.210,33.943,4.891,4.910,318.635,284.066,320.619
0.211,34.240,4.858,4.864,318.537,283.786,320.616
0.212,34.498,4.832,4.831,318.459,283.541,320.597
0.213,34.723,4.812,4.811,318.397,283.327,320.563
0.214,34.920,4.799,4.802,318.350,283.141,320.517
0.215,35.096,4.791,4.803,318.314,282.978,320.463
0.216,35.253,4.787,4.813,318.285,282.835,320.403
0.217,35.397,4.788,4.828,318.260,282.709,320.340
0.218,35.529,4.792,4.848,318.236,282.595,320.277
0.219,35.653,4.798,4.870,318.211,282.490,320.216
0.221,35.769,4.805,4.892,318.182,282.393,320.160
0.222,35.876,4.814,4.914,318.152,282.304,320.110
0.223,35.974,4.823,4.932,318.119,282.222,320.067
0.224,36.064,4.831,4.946,318.084,282.147,320.032
0.225,36.145,4.839,4.955,318.047,282.079,320.007
0.226,36.218,4.846,4.962,318.009,282.018,319.993
0.227,36.285,4.851,4.966,317.970,281.963,319.992
0.228,36.349,4.856,4.967,317.930,281.915,320.004
0.229,36.414,4.859,4.967,317.890,281.873,320.032
0.230,36.484,4.860,4.965,317.850,281.837,320.076
0.231,36.561,4.860,4.963,317.809,281.806,320.135
0.232,36.646,4.857,4.960,317.770,281.781,320.206
0.233,36.733,4.853,4.957,317.734,281.760,320.283
0.234,36.822,4.846,4.954,317.700,281.743,320.363
0.235,36.908,4.838,4.952,317.670,281.730,320.442
0.236,36.987,4.828,4.949,317.646,281.720,320.517
0.237,37.056,4.817,4.947,317.627,281.712,320.583
0.238,37.111,4.805,4.945,317.615,281.706,320.636
0.239,37.148,4.793,4.942,317.611,281.702,320.672
0.240,37.165,4.781,4.940,317.615,281.698,320.688
0.241,37.178,4.770,4.937,317.627,281.694,320.684
0.242,37.206,4.758,4.933,317.645,281.688,320.663
0.243,37.245,4.748,4.929,317.664,281.679,320.630
0.244,37.291,4.739,4.924,317.682,281.664,320.590
0.245,37.341,4.730,4.918,317.696,281.643,320.548
0.246,37.391,4.720,4.910,317.702,281.612,320.508
0.247,37.444,4.710,4.900,317.699,281.571,320.475
0.248,37.504,4.698,4.888,317.683,281.517,320.454
0.249,37.579,4.685,4.872,317.650,281.450,320.449
0.250,37.678,4.669,4.854,317.599,281.367,320.464
0.251,37.807,4.651,4.831,317.527,281.267,320.504
0.252,37.964,4.629,4.804,317.437,281.154,320.564
0.253,38.144,4.603,4.773,317.333,281.031,320.645
0.254,38.346,4.574,4.738,317.216,280.899,320.743
0.255,38.563,4.544,4.701,317.090,280.763,320.856
0.256,38.793,4.513,4.665,316.958,280.624,320.982
0.257,39.030,4.484,4.629,316.822,280.486,321.119
0.258,39.271,4.457,4.597,316.685,280.351,321.265
0.259,39.512,4.433,4.570,316.551,280.222,321.418
0.261,39.748,4.415,4.549,316.421,280.103,321.575
0.262,39.976,4.404,4.537,316.299,279.994,321.735
0.263,40.195,4.400,4.534,316.184,279.896,321.893
0.264,40.402,4.405,4.542,316.076,279.808,322.045
0.265,40.595,4.417,4.559,315.975,279.727,322.189
0.266,40.773,4.434,4.582,315.879,279.654,322.319
0.267,40.932,4.454,4.608,315.790,279.586,322.433
0.268,41.072,4.474,4.635,315.706,279.524,322.526
0.269,41.193,4.492,4.659,315.627,279.465,322.595
0.270,41.294,4.506,4.678,315.553,279.409,322.636
0.271,41.383,4.513,4.689,315.484,279.354,322.645
0.272,41.472,4.512,4.689,315.418,279.299,322.619
0.273,41.573,4.499,4.675,315.355,279.243,322.564
0.274,41.691,4.474,4.646,315.292,279.182,322.486
0.275,41.824,4.440,4.606,315.229,279.114,322.390
0.276,41.971,4.398,4.560,315.162,279.036,322.285
0.277,42.130,4.353,4.512,315.091,278.946,322.175
0.278,42.298,4.306,4.468,315.014,278.842,322.068
0.279,42.476,4.262,4.431,314.929,278.721,321.969
0.280,42.665,4.223,4.407,314.833,278.580,321.887
0.281,42.869,4.191,4.401,314.726,278.417,321.826
0.282,43.094,4.171,4.417,314.606,278.230,321.793
0.283,43.338,4.165,4.460,314.475,278.024,321.785
0.284,43.597,4.174,4.531,314.337,277.805,321.796
0.285,43.863,4.195,4.623,314.194,277.582,321.819
0.286,44.127,4.224,4.728,314.051,277.362,321.848
0.287,44.382,4.260,4.840,313.910,277.152,321.878
0.288,44.618,4.298,4.950,313.776,276.959,321.901
0.289,44.828,4.335,5.051,313.651,276.790,321.912
0.290,45.004,4.368,5.134,313.540,276.654,321.904
0.291,45.143,4.393,5.194,313.445,276.557,321.871
0.292,45.254,4.408,5.221,313.370,276.507,321.808
0.293,45.362,4.408,5.209,313.315,276.500,321.715
0.294,45.489,4.394,5.156,313.276,276.528,321.597
0.295,45.637,4.368,5.072,313.251,276.582,321.462
0.296,45.801,4.333,4.965,313.236,276.653,321.315
0.297,45.974,4.291,4.844,313.228,276.733,321.161
0.298,46.147,4.246,4.718,313.224,276.811,321.007
0.299,46.310,4.200,4.597,313.221,276.879,320.859
0.301,46.456,4.157,4.489,313.217,276.929,320.722
0.302,46.578,4.118,4.402,313.207,276.950,320.603
0.303,46.677,4.088,4.347,313.190,276.936,320.506
0.304,46.770,4.068,4.332,313.163,276.882,320.434
0.305,46.876,4.059,4.356,313.130,276.794,320.385
0.306,47.002,4.059,4.412,313.091,276.678,320.354
0.307,47.149,4.068,4.491,313.048,276.539,320.339
0.308,47.313,4.083,4.586,313.004,276.381,320.337
0.309,47.489,4.103,4.688,312.960,276.211,320.344
0.310,47.672,4.127,4.789,312.918,276.033,320.358
0.311,47.858,4.152,4.881,312.879,275.853,320.376
0.312,48.039,4.177,4.955,312.846,275.675,320.394
0.313,48.211,4.201,5.005,312.820,275.506,320.409
0.314,48.371,4.223,5.021,312.802,275.348,320.420
0.315,48.518,4.240,5.005,312.791,275.200,320.425
0.316,48.655,4.255,4.963,312.784,275.064,320.421
0.317,48.782,4.266,4.899,312.782,274.937,320.409
0.318,48.901,4.274,4.820,312.783,274.820,320.387
0.319,49.014,4.278,4.730,312.785,274.712,320.354
0.320,49.124,4.279,4.635,312.787,274.613,320.308
0.321,49.234,4.277,4.540,312.788,274.521,320.248
0.322,49.346,4.271,4.451,312.787,274.437,320.173
0.323,49.466,4.262,4.373,312.781,274.360,320.081
0.324,49.596,4.251,4.311,312.770,274.288,319.973
0.325,49.736,4.237,4.266,312.755,274.219,319.852
0.326,49.885,4.222,4.236,312.734,274.150,319.723
0.327,50.040,4.209,4.219,312.708,274.077,319.588
0.328,50.200,4.199,4.216,312.677,273.996,319.454
0.329,50.364,4.193,4.223,312.641,273.905,319.322
0.330,50.532,4.192,4.241,312.600,273.800,319.198
0.331,50.705,4.199,4.267,312.553,273.678,319.085
0.332,50.885,4.214,4.300,312.501,273.535,318.988
0.333,51.077,4.240,4.340,312.444,273.369,318.910
0.334,51.286,4.277,4.385,312.381,273.178,318.855
0.335,51.513,4.324,4.434,312.313,272.965,318.818
0.336,51.754,4.378,4.485,312.239,272.736,318.794
0.337,52.007,4.437,4.538,312.159,272.496,318.779
0.338,52.266,4.498,4.592,312.074,272.252,318.767
0.339,52.526,4.560,4.646,311.982,272.009,318.753
0.341,52.783,4.620,4.698,311.884,271.772,318.731
0.342,53.033,4.675,4.748,311.780,271.548,318.698
0.343,53.274,4.724,4.794,311.669,271.340,318.647
0.344,53.504,4.764,4.836,311.552,271.156,318.573
0.345,53.728,4.794,4.873,311.428,271.000,318.473
0.346,53.948,4.814,4.905,311.299,270.871,318.349
0.347,54.170,4.827,4.932,311.167,270.766,318.205
0.348,54.392,4.833,4.954,311.034,270.683,318.048
0.349,54.613,4.835,4.972,310.902,270.619,317.882
0.350,54.832,4.835,4.987,310.773,270.571,317.712
0.351,55.043,4.832,4.997,310.650,270.537,317.544
0.352,55.244,4.830,5.005,310.534,270.513,317.382
0.353,55.428,4.829,5.009,310.428,270.498,317.231
0.354,55.593,4.832,5.010,310.333,270.488,317.098
0.355,55.731,4.839,5.009,310.252,270.480,316.985
0.356,55.845,4.848,5.007,310.184,270.474,316.895
0.357,55.934,4.861,5.003,310.130,270.470,316.824
0.358,56.002,4.876,4.998,310.087,270.466,316.771
0.359,56.050,4.892,4.994,310.056,270.462,316.734
0.360,56.081,4.909,4.990,310.036,270.458,316.711
0.361,56.098,4.926,4.988,310.025,270.454,316.699
0.362,56.103,4.943,4.987,310.024,270.450,316.696
0.363,56.113,4.959,4.989,310.031,270.444,316.701
0.364,56.132,4.972,4.995,310.045,270.438,316.712
0.365,56.158,4.984,5.002,310.066,270.429,316.725
0.366,56.189,4.992,5.012,310.091,270.420,316.740
0.367,56.222,4.998,5.022,310.118,270.410,316.755
0.368,56.251,5.000,5.031,310.144,270.401,316.768
0.369,56.275,4.999,5.038,310.164,270.393,316.777
0.370,56.288,4.993,5.042,310.176,270.389,316.781
0.371,56.291,4.983,5.041,310.177,270.389,316.779
0.372,56.309,4.968,5.034,310.163,270.394,316.768
0.373,56.348,4.947,5.019,310.132,270.405,316.747
0.374,56.412,4.921,4.997,310.080,270.423,316.715
0.375,56.505,4.891,4.967,310.003,270.450,316.669
0.376,56.626,4.856,4.930,309.903,270.484,316.610
0.377,56.769,4.818,4.888,309.784,270.524,316.542
0.378,56.929,4.779,4.843,309.650,270.568,316.467
0.379,57.100,4.740,4.795,309.505,270.612,316.388
0.381,57.275,4.701,4.748,309.356,270.656,316.308
0.382,57.448,4.664,4.701,309.205,270.696,316.231
0.383,57.615,4.631,4.657,309.059,270.730,316.160
0.384,57.768,4.601,4.617,308.922,270.756,316.097
0.385,57.902,4.577,4.583,308.798,270.772,316.046
0.386,58.014,4.557,4.553,308.692,270.774,316.011
0.387,58.102,4.541,4.529,308.607,270.764,315.991
0.388,58.173,4.528,4.509,308.539,270.746,315.984
0.389,58.232,4.516,4.493,308.483,270.725,315.984
0.390,58.282,4.505,4.479,308.437,270.706,315.988
0.391,58.326,4.493,4.468,308.395,270.695,315.991
0.392,58.367,4.480,4.459,308.354,270.696,315.988
0.393,58.417,4.464,4.451,308.310,270.716,315.976
0.394,58.489,4.444,4.443,308.258,270.759,315.949
0.395,58.595,4.420,4.435,308.195,270.830,315.903
0.396,58.743,4.392,4.427,308.116,270.935,315.835
0.397,58.939,4.360,4.418,308.018,271.076,315.740
0.398,59.174,4.326,4.408,307.905,271.246,315.625
0.399,59.439,4.292,4.396,307.778,271.438,315.492
0.400,59.723,4.257,4.383,307.641,271.641,315.348
0.401,60.017,4.222,4.367,307.495,271.847,315.198
0.402,60.309,4.190,4.350,307.345,272.048,315.047
0.403,60.591,4.160,4.330,307.193,272.234,314.900
0.404,60.853,4.134,4.307,307.042,272.398,314.762
0.405,61.086,4.112,4.281,306.895,272.530,314.639
0.406,61.283,4.095,4.252,306.755,272.622,314.535
0.407,61.443,4.081,4.223,306.623,272.666,314.455
0.408,61.577,4.071,4.193,306.503,272.668,314.397
0.409,61.698,4.064,4.164,306.394,272.636,314.358
0.410,61.814,4.059,4.136,306.297,272.577,314.334
0.411,61.929,4.058,4.111,306.212,272.500,314.321
0.412,62.041,4.058,4.090,306.142,272.413,314.316
0.413,62.147,4.060,4.072,306.086,272.323,314.316
0.414,62.240,4.063,4.060,306.045,272.240,314.316
0.415,62.313,4.067,4.054,306.020,272.170,314.314
0.416,62.362,4.071,4.051,306.012,272.123,314.306
0.417,62.388,4.075,4.052,306.021,272.106,314.289
