"T","Distance","Radius","FreeRadius","X","Y","Z"
0.000,0.000,1.119,1.119,321.503,296.648,304.511
0.001,0.125,1.178,1.178,321.434,296.556,304.464
0.002,0.248,1.237,1.237,321.364,296.465,304.417
0.003,0.370,1.295,1.295,321.296,296.376,304.370
0.004,0.489,1.352,1.352,321.229,296.289,304.323
0.005,0.605,1.408,1.408,321.164,296.206,304.276
0.006,0.716,1.463,1.463,321.101,296.127,304.229
0.007,0.822,1.517,1.517,321.041,296.053,304.183
0.008,0.922,1.568,1.568,320.985,295.986,304.136
0.009,1.015,1.617,1.617,320.932,295.925,304.090
0.010,1.100,1.664,1.664,320.883,295.871,304.044
0.011,1.178,1.708,1.708,320.840,295.827,303.998
0.012,1.247,1.750,1.750,320.801,295.791,303.952
0.013,1.309,1.788,1.788,320.768,295.766,303.906
0.014,1.365,1.824,1.824,320.740,295.748,303.862
0.015,1.416,1.857,1.857,320.716,295.736,303.818
0.016,1.463,1.886,1.886,320.697,295.729,303.776
0.017,1.506,1.913,1.913,320.681,295.725,303.735
0.018,1.547,1.936,1.936,320.669,295.723,303.697
0.019,1.584,1.956,1.956,320.660,295.721,303.661
0.020,1.617,1.972,1.972,320.653,295.717,303.628
0.021,1.648,1.986,1.986,320.649,295.710,303.599
0.022,1.677,1.996,1.996,320.647,295.698,303.573
0.023,1.706,2.004,2.004,320.646,295.680,303.551
0.024,1.737,2.011,2.011,320.647,295.653,303.533
0.025,1.774,2.018,2.018,320.648,295.619,303.519
0.026,1.817,2.024,2.024,320.650,295.578,303.509
0.027,1.865,2.031,2.031,320.652,295.530,303.501
0.028,1.920,2.040,2.040,320.655,295.476,303.494
0.029,1.978,2.051,2.051,320.658,295.418,303.489
0.030,2.041,2.066,2.066,320.662,295.355,303.485
0.031,2.108,2.084,2.084,320.665,295.289,303.479
0.032,2.176,2.106,2.106,320.668,295.221,303.473
0.033,2.247,2.130,2.130,320.671,295.150,303.465
0.034,2.320,2.156,2.156,320.673,295.079,303.455
0.035,2.393,2.184,2.184,320.675,295.007,303.441
0.036,2.466,2.211,2.211,320.677,294.936,303.424
0.037,2.539,2.237,2.237,320.678,294.866,303.405
0.038,2.610,2.261,2.261,320.680,294.796,303.388
0.039,2.679,2.282,2.282,320.684,294.729,303.375
0.040,2.745,2.300,2.300,320.691,294.663,303.369
0.041,2.809,2.312,2.312,320.701,294.600,303.372
0.042,2.873,2.320,2.320,320.716,294.540,303.387
0.043,2.941,2.323,2.323,320.735,294.482,303.418
0.044,3.018,2.322,2.322,320.761,294.428,303.466
0.045,3.109,2.318,2.318,320.793,294.378,303.534
0.046,3.219,2.311,2.311,320.833,294.331,303.626
0.047,3.353,2.302,2.302,320.882,294.289,303.743
0.048,3.511,2.291,2.291,320.939,294.252,303.886
0.049,3.690,2.279,2.279,321.003,294.220,304.050
0.050,3.885,2.267,2.267,321.073,294.191,304.229
0.051,4.090,2.254,2.254,321.148,294.168,304.419
0.052,4.300,2.242,2.242,321.225,294.148,304.613
0.053,4.510,2.231,2.231,321.305,294.133,304.807
0.054,4.714,2.220,2.220,321.385,294.122,304.994
0.055,4.908,2.211,2.211,321.464,294.115,305.171
0.056,5.085,2.204,2.204,321.540,294.112,305.331
0.057,5.241,2.198,2.198,321.613,294.113,305.470
0.058,5.372,2.195,2.195,321.680,294.117,305.581
0.059,5.472,2.195,2.195,321.741,294.125,305.660
0.060,5.545,2.197,2.197,321.794,294.136,305.709
0.061,5.597,2.202,2.202,321.840,294.147,305.731
0.062,5.635,2.211,2.211,321.877,294.157,305.734
0.063,5.667,2.223,2.223,321.905,294.163,305.722
0.064,5.696,2.237,2.237,321.924,294.164,305.700
0.065,5.724,2.254,2.254,321.934,294.157,305.674
0.066,5.753,2.273,2.273,321.933,294.142,305.649
0.067,5.787,2.293,2.293,321.921,294.115,305.631
0.068,5.834,2.315,2.315,321.898,294.075,305.626
0.069,5.899,2.338,2.338,321.864,294.020,305.637
0.070,5.992,2.362,2.362,321.818,293.948,305.672
0.071,6.116,2.386,2.386,321.759,293.858,305.734
0.072,6.267,2.410,2.410,321.694,293.753,305.821
0.073,6.439,2.433,2.433,321.628,293.637,305.929
0.074,6.626,2.457,2.457,321.567,293.513,306.056
0.075,6.823,2.479,2.479,321.517,293.386,306.197
0.076,7.023,2.501,2.501,321.483,293.259,306.349
0.077,7.224,2.521,2.521,321.472,293.138,306.508
0.078,7.423,2.540,2.540,321.490,293.024,306.671
0.079,7.622,2.557,2.557,321.542,292.924,306.835
0.080,7.826,2.573,2.573,321.635,292.839,306.995
0.081,8.042,2.586,2.586,321.774,292.776,307.148
0.082,8.284,2.597,2.597,321.965,292.736,307.291
0.083,8.561,2.605,2.605,322.209,292.723,307.422
0.084,8.871,2.611,2.611,322.494,292.734,307.544
0.085,9.210,2.615,2.615,322.809,292.765,307.662
0.086,9.567,2.616,2.616,323.143,292.814,307.780
0.087,9.933,2.615,2.615,323.483,292.879,307.899
0.088,10.300,2.612,2.612,323.819,292.955,308.026
0.089,10.657,2.607,2.607,324.138,293.042,308.162
0.090,10.998,2.600,2.600,324.429,293.135,308.312
0.091,11.315,2.591,2.591,324.680,293.232,308.479
0.092,11.606,2.580,2.580,324.880,293.330,308.668
0.093,11.877,2.568,2.568,325.016,293.426,308.881
0.094,12.142,2.555,2.555,325.078,293.518,309.122
0.095,12.423,2.543,2.543,325.068,293.605,309.389
0.096,12.729,2.532,2.532,324.995,293.685,309.675
0.097,13.061,2.524,2.524,324.869,293.760,309.972
0.098,13.414,2.518,2.518,324.702,293.829,310.275
0.099,13.780,2.517,2.517,324.502,293.893,310.577
0.100,14.152,2.521,2.521,324.281,293.951,310.869
0.101,14.517,2.530,2.530,324.050,294.003,311.147
0.102,14.865,2.547,2.547,323.817,294.050,311.402
0.103,15.186,2.570,2.570,323.594,294.091,311.628
0.104,15.466,2.597,2.597,323.391,294.126,311.818
0.105,15.695,2.629,2.629,323.218,294.156,311.965
0.106,15.864,2.663,2.663,323.084,294.180,312.064
0.107,15.977,2.698,2.698,322.987,294.199,312.121
0.108,16.046,2.733,2.733,322.923,294.213,312.143
0.109,16.082,2.766,2.766,322.889,294.223,312.138
0.110,16.108,2.796,2.796,322.879,294.229,312.114
0.111,16.144,2.822,2.822,322.890,294.230,312.080
0.112,16.191,2.842,2.842,322.918,294.229,312.043
0.113,16.242,2.856,2.856,322.958,294.224,312.011
0.114,16.294,2.867,2.867,323.006,294.217,311.992
0.115,16.347,2.875,2.875,323.058,294.207,311.995
0.116,16.409,2.883,2.883,323.110,294.196,312.026
0.117,16.494,2.891,2.891,323.158,294.183,312.095
0.118,16.611,2.901,2.901,323.198,294.168,312.205
0.119,16.760,2.916,2.916,323.232,294.153,312.348
0.120,16.935,2.936,2.936,323.259,294.138,312.520
0.121,17.130,2.963,2.963,323.280,294.123,312.714
0.122,17.339,2.999,2.999,323.295,294.107,312.922
0.123,17.556,3.043,3.043,323.306,294.093,313.138
0.124,17.774,3.095,3.095,323.311,294.080,313.356
0.125,17.987,3.152,3.152,323.313,294.068,313.568
0.125,18.188,3.211,3.211,323.311,294.058,313.769
0.126,18.370,3.271,3.271,323.305,294.050,313.951
0.127,18.527,3.330,3.330,323.297,294.045,314.107
0.128,18.652,3.384,3.384,323.286,294.043,314.232
0.129,18.746,3.432,3.432,323.273,294.043,314.326
0.130,18.816,3.473,3.473,323.258,294.043,314.393
0.131,18.865,3.503,3.503,323.241,294.043,314.440
0.132,18.902,3.521,3.521,323.222,294.041,314.472
0.133,18.932,3.531,3.531,323.202,294.034,314.493
0.134,18.962,3.534,3.534,323.180,294.023,314.510
0.135,18.997,3.532,3.532,323.157,294.004,314.529
0.136,19.042,3.529,3.529,323.132,293.977,314.554
0.137,19.100,3.527,3.527,323.107,293.940,314.590
0.138,19.178,3.528,3.528,323.080,293.891,314.644
0.139,19.280,3.534,3.534,323.052,293.829,314.721
0.140,19.412,3.550,3.550,323.023,293.754,314.825
0.141,19.570,3.576,3.576,322.994,293.665,314.953
0.142,19.750,3.615,3.615,322.964,293.567,315.101
0.143,19.946,3.664,3.664,322.934,293.462,315.263
0.144,20.152,3.722,3.722,322.905,293.353,315.436
0.145,20.363,3.785,3.785,322.877,293.241,315.613
0.146,20.575,3.852,3.852,322.850,293.130,315.791
0.147,20.780,3.920,3.920,322.824,293.023,315.964
0.148,20.974,3.985,3.985,322.799,292.921,316.128
0.149,21.152,4.047,4.047,322.777,292.828,316.278
0.150,21.307,4.101,4.101,322.757,292.746,316.408
0.151,21.435,4.147,4.147,322.740,292.678,316.515
0.152,21.533,4.181,4.181,322.726,292.626,316.596
0.153,21.603,4.204,4.204,322.714,292.586,316.652
0.154,21.649,4.218,4.218,322.704,292.559,316.688
0.155,21.674,4.223,4.224,322.697,292.543,316.706
0.156,21.684,4.223,4.223,322.691,292.535,316.709
0.157,21.695,4.217,4.218,322.687,292.534,316.699
0.158,21.714,4.208,4.208,322.684,292.538,316.681
0.159,21.740,4.197,4.197,322.682,292.547,316.656
0.160,21.770,4.186,4.186,322.680,292.557,316.628
0.161,21.801,4.175,4.175,322.680,292.568,316.599
0.162,21.828,4.167,4.166,322.679,292.578,316.573
0.163,21.850,4.161,4.160,322.678,292.585,316.553
0.164,21.864,4.157,4.156,322.676,292.587,316.539
0.165,21.872,4.155,4.154,322.674,292.585,316.532
0.166,21.880,4.154,4.153,322.671,292.577,316.532
0.167,21.897,4.155,4.153,322.665,292.563,316.538
0.168,21.923,4.155,4.154,322.658,292.542,316.551
0.169,21.960,4.156,4.155,322.648,292.512,316.570
0.170,22.008,4.156,4.155,322.635,292.474,316.596
0.171,22.068,4.156,4.156,322.619,292.426,316.628
0.172,22.141,4.154,4.155,322.599,292.367,316.666
0.173,22.227,4.153,4.154,322.575,292.297,316.711
0.174,22.327,4.152,4.155,322.546,292.215,316.762
0.175,22.443,4.155,4.158,322.513,292.121,316.819
0.176,22.573,4.162,4.166,322.474,292.015,316.883
0.177,22.716,4.175,4.180,322.431,291.897,316.953
0.178,22.873,4.197,4.202,322.383,291.770,317.031
0.179,23.042,4.228,4.232,322.332,291.634,317.116
0.180,23.222,4.270,4.274,322.276,291.490,317.210
0.181,23.413,4.326,4.327,322.216,291.339,317.311
0.182,23.615,4.396,4.394,322.153,291.183,317.421
0.183,23.826,4.480,4.475,322.086,291.022,317.541
0.184,24.047,4.576,4.567,322.016,290.857,317.670
0.185,24.276,4.680,4.668,321.943,290.690,317.808
0.186,24.513,4.791,4.776,321.867,290.521,317.957
0.187,24.758,4.906,4.889,321.789,290.352,318.116
0.188,25.007,5.022,5.004,321.709,290.184,318.282
0.189,25.256,5.135,5.119,321.629,290.020,318.452
0.190,25.504,5.245,5.232,321.550,289.860,318.623
0.191,25.746,5.347,5.341,321.473,289.707,318.793
0.192,25.979,5.440,5.444,321.399,289.561,318.960
0.193,26.199,5.522,5.538,321.329,289.426,319.119
0.194,26.404,5.593,5.624,321.264,289.302,319.269
0.195,26.590,5.654,5.702,321.205,289.191,319.406
0.196,26.754,5.706,5.771,321.153,289.095,319.528
0.197,26.892,5.750,5.832,321.110,289.016,319.633
0.198,27.001,5.787,5.884,321.077,288.955,319.716
0.199,27.081,5.816,5.927,321.052,288.911,319.779
0.200,27.135,5.840,5.961,321.036,288.884,319.824
0.201,27.169,5.858,5.986,321.027,288.870,319.852
0.202,27.185,5.871,6.001,321.024,288.868,319.868
0.203,27.194,5.881,6.008,321.025,288.876,319.873
0.204,27.210,5.888,6.006,321.030,288.891,319.870
0.205,27.234,5.892,5.999,321.037,288.912,319.860
0.206,27.262,5.893,5.986,321.045,288.937,319.848
0.207,27.292,5.894,5.970,321.053,288.962,319.835
0.208,27.320,5.893,5.952,321.060,288.987,319.824
0.209,27.344,5.892,5.934,321.064,289.010,319.817
0.210,27.362,5.891,5.917,321.064,289.027,319.817
0.211,27.376,5.891,5.902,321.061,289.040,319.824
0.212,27.393,5.892,5.891,321.054,289.048,319.836
0.213,27.415,5.894,5.885,321.042,289.051,319.854
0.214,27.443,5.899,5.884,321.026,289.051,319.878
0.215,27.478,5.905,5.888,321.006,289.046,319.905
0.216,27.519,5.913,5.895,320.981,289.037,319.937
0.217,27.567,5.923,5.906,320.951,289.024,319.972
0.218,27.621,5.935,5.920,320.916,289.008,320.010
0.219,27.680,5.948,5.936,320.877,288.989,320.050
0.220,27.746,5.963,5.955,320.832,288.966,320.091
0.221,27.816,5.980,5.976,320.781,288.941,320.134
0.222,27.892,5.998,5.998,320.726,288.913,320.178
0.223,27.973,6.018,6.020,320.666,288.883,320.222
0.224,28.057,6.039,6.044,320.602,288.852,320.268
0.225,28.144,6.061,6.067,320.535,288.821,320.314
0.226,28.234,6.083,6.090,320.465,288.790,320.361
0.227,28.325,6.105,6.113,320.394,288.761,320.410
0.228,28.417,6.127,6.135,320.321,288.734,320.460
0.229,28.509,6.147,6.155,320.249,288.709,320.511
0.230,28.601,6.167,6.174,320.177,288.688,320.564
0.231,28.692,6.184,6.190,320.106,288.671,320.618
0.232,28.782,6.199,6.204,320.037,288.659,320.674
0.233,28.870,6.211,6.216,319.970,288.653,320.732
0.234,28.957,6.220,6.224,319.907,288.653,320.791
0.235,29.042,6.226,6.230,319.846,288.658,320.850
0.236,29.124,6.230,6.233,319.789,288.667,320.909
0.237,29.204,6.231,6.234,319.735,288.681,320.967
0.238,29.280,6.230,6.232,319.685,288.697,321.021
0.239,29.352,6.227,6.228,319.638,288.716,321.073
0.240,29.419,6.221,6.222,319.595,288.737,321.119
0.241,29.480,6.213,6.214,319.556,288.760,321.161
0.242,29.535,6.203,6.203,319.521,288.782,321.195
0.243,29.582,6.191,6.191,319.489,288.805,321.223
0.244,29.622,6.177,6.177,319.462,288.827,321.241
0.245,29.655,6.161,6.161,319.439,288.848,321.252
0.246,29.685,6.142,6.142,319.419,288.869,321.256
0.247,29.717,6.120,6.120,319.399,288.894,321.259
0.248,29.754,6.095,6.095,319.379,288.925,321.266
0.249,29.803,6.067,6.066,319.356,288.965,321.282
0.250,29.867,6.034,6.034,319.328,289.016,321.310
0.251,29.954,5.998,5.998,319.294,289.081,321.356
0.252,30.068,5.957,5.957,319.252,289.162,321.425
0.253,30.217,5.912,5.912,319.200,289.263,321.521
0.254,30.405,5.862,5.862,319.136,289.386,321.648
0.255,30.638,5.810,5.811,319.058,289.534,321.811
0.256,30.923,5.758,5.758,318.965,289.709,322.016
0.257,31.261,5.707,5.707,318.857,289.911,322.263
0.258,31.641,5.658,5.658,318.734,290.136,322.545
0.259,32.054,5.614,5.614,318.602,290.376,322.853
0.260,32.488,5.576,5.576,318.462,290.626,323.180
0.261,32.933,5.545,5.546,318.318,290.880,323.515
0.262,33.377,5.525,5.525,318.173,291.130,323.852
0.263,33.809,5.515,5.515,318.030,291.371,324.181
0.264,34.218,5.517,5.517,317.892,291.596,324.494
0.265,34.594,5.528,5.528,317.762,291.799,324.782
0.266,34.924,5.548,5.548,317.643,291.973,325.036
0.267,35.200,5.574,5.574,317.539,292.113,325.249
0.268,35.409,5.604,5.604,317.452,292.213,325.412
0.269,35.553,5.636,5.636,317.383,292.271,325.524
0.270,35.642,5.669,5.669,317.332,292.296,325.591
0.271,35.688,5.700,5.700,317.297,292.294,325.621
0.272,35.717,5.728,5.728,317.277,292.273,325.621
0.273,35.759,5.751,5.751,317.271,292.239,325.597
0.274,35.817,5.768,5.768,317.279,292.199,325.556
0.275,35.883,5.778,5.778,317.299,292.161,325.506
0.276,35.952,5.782,5.782,317.330,292.131,325.453
0.277,36.017,5.781,5.781,317.371,292.116,325.404
0.278,36.080,5.774,5.774,317.421,292.124,325.366
0.279,36.152,5.761,5.761,317.479,292.162,325.346
0.280,36.250,5.744,5.744,317.543,292.235,325.350
0.281,36.380,5.721,5.721,317.613,292.341,325.377
0.282,36.539,5.695,5.695,317.687,292.474,325.423
0.283,36.721,5.663,5.663,317.761,292.628,325.484
0.284,36.919,5.629,5.629,317.836,292.798,325.556
0.285,37.128,5.591,5.591,317.907,292.977,325.635
0.286,37.339,5.553,5.553,317.975,293.159,325.717
0.287,37.545,5.514,5.514,318.036,293.339,325.798
0.288,37.740,5.478,5.478,318.090,293.510,325.874
0.289,37.915,5.445,5.445,318.133,293.667,325.940
0.290,38.065,5.416,5.416,318.165,293.803,325.994
0.291,38.182,5.393,5.393,318.183,293.913,326.030
0.292,38.264,5.378,5.378,318.186,293.993,326.048
0.293,38.319,5.372,5.372,318.177,294.047,326.049
0.294,38.359,5.375,5.375,318.159,294.081,326.040
0.295,38.394,5.387,5.387,318.134,294.100,326.025
0.296,38.428,5.403,5.403,318.105,294.108,326.008
0.297,38.462,5.422,5.422,318.074,294.110,325.994
0.298,38.492,5.440,5.440,318.045,294.112,325.987
0.299,38.518,5.454,5.454,318.021,294.119,325.992
0.300,38.550,5.462,5.462,318.003,294.136,326.013
0.301,38.603,5.461,5.461,317.996,294.167,326.055
0.302,38.689,5.447,5.447,318.000,294.219,326.123
0.303,38.814,5.418,5.418,318.020,294.295,326.221
0.304,38.982,5.372,5.372,318.056,294.397,326.349
0.305,39.185,5.310,5.310,318.106,294.520,326.503
0.306,39.418,5.234,5.234,318.167,294.661,326.678
0.307,39.674,5.148,5.148,318.239,294.814,326.870
0.308,39.946,5.056,5.056,318.320,294.976,327.074
0.309,40.229,4.959,4.959,318.406,295.142,327.286
0.310,40.516,4.862,4.862,318.497,295.308,327.501
0.311,40.800,4.768,4.768,318.591,295.470,327.714
0.312,41.075,4.679,4.679,318.686,295.624,327.922
0.313,41.334,4.598,4.598,318.779,295.764,328.119
0.314,41.572,4.529,4.529,318.870,295.888,328.301
0.315,41.783,4.473,4.473,318.956,295.990,328.464
0.316,41.967,4.427,4.427,319.036,296.072,328.607
0.317,42.126,4.392,4.392,319.112,296.136,328.732
0.318,42.262,4.366,4.366,319.182,296.183,328.839
0.319,42.379,4.347,4.347,319.248,296.215,328.930
0.320,42.478,4.335,4.335,319.309,296.235,329.006
0.321,42.562,4.329,4.329,319.365,296.244,329.067
0.322,42.633,4.327,4.327,319.417,296.245,329.115
0.323,42.693,4.329,4.329,319.464,296.240,329.152
0.324,42.743,4.333,4.333,319.507,296.231,329.177
0.325,42.787,4.338,4.338,319.546,296.219,329.193
0.326,42.824,4.343,4.343,319.581,296.208,329.200
0.327,42.857,4.347,4.347,319.612,296.198,329.200
0.328,42.888,4.348,4.348,319.641,296.188,329.195
0.329,42.920,4.346,4.346,319.670,296.177,329.189
0.330,42.952,4.340,4.340,319.700,296.165,329.183
0.331,42.989,4.327,4.327,319.733,296.150,329.180
0.332,43.031,4.307,4.307,319.770,296.130,329.184
0.333,43.083,4.279,4.279,319.814,296.105,329.196
0.334,43.147,4.242,4.242,319.865,296.074,329.220
0.335,43.229,4.195,4.195,319.927,296.036,329.257
0.336,43.331,4.140,4.140,319.999,295.988,329.312
0.337,43.458,4.076,4.076,320.084,295.931,329.386
0.338,43.613,4.007,4.007,320.184,295.863,329.482
0.339,43.794,3.932,3.932,320.298,295.784,329.600
0.340,43.999,3.853,3.853,320.420,295.698,329.739
0.341,44.220,3.772,3.772,320.548,295.606,329.895
0.342,44.453,3.688,3.688,320.676,295.512,330.066
0.343,44.694,3.603,3.603,320.801,295.419,330.249
0.344,44.937,3.519,3.519,320.917,295.328,330.442
0.345,45.178,3.437,3.437,321.021,295.242,330.642
0.346,45.413,3.356,3.356,321.109,295.165,330.847
0.347,45.641,3.276,3.276,321.175,295.099,331.053
0.348,45.858,3.200,3.200,321.216,295.046,331.260
0.349,46.065,3.125,3.125,321.227,295.009,331.463
0.350,46.265,3.054,3.054,321.204,294.991,331.662
0.351,46.464,2.985,2.985,321.150,294.990,331.853
0.352,46.665,2.920,2.920,321.068,295.005,332.036
0.353,46.870,2.859,2.859,320.962,295.032,332.210
0.354,47.079,2.802,2.802,320.838,295.069,332.374
0.355,47.291,2.748,2.748,320.698,295.115,332.526
0.356,47.503,2.700,2.700,320.548,295.166,332.667
0.357,47.712,2.656,2.656,320.391,295.220,332.794
0.358,47.914,2.617,2.617,320.232,295.275,332.906
0.359,48.106,2.583,2.583,320.075,295.328,333.003
0.360,48.284,2.555,2.555,319.924,295.377,333.084
0.361,48.444,2.532,2.532,319.784,295.419,333.146
0.362,48.583,2.515,2.515,319.657,295.453,333.191
0.363,48.703,2.504,2.504,319.543,295.481,333.221
0.364,48.807,2.499,2.499,319.443,295.503,333.239
0.365,48.898,2.500,2.500,319.355,295.522,333.248
0.366,48.976,2.506,2.506,319.279,295.540,333.251
0.367,49.044,2.514,2.514,319.214,295.559,333.252
0.368,49.102,2.521,2.521,319.160,295.579,333.253
0.369,49.153,2.526,2.526,319.115,295.604,333.259
0.370,49.201,2.526,2.526,319.080,295.634,333.271
0.371,49.252,2.518,2.518,319.054,295.672,333.293
0.372,49.314,2.501,2.501,319.036,295.719,333.329
0.373,49.393,2.472,2.472,319.025,295.778,333.381
0.374,49.492,2.428,2.428,319.021,295.848,333.451
0.375,49.610,2.368,2.368,319.023,295.928,333.538
0.375,49.745,2.293,2.293,319.029,296.016,333.639
0.376,49.894,2.205,2.205,319.037,296.111,333.755
0.377,50.056,2.108,2.108,319.047,296.210,333.882
0.378,50.229,2.005,2.005,319.058,296.313,334.021
0.379,50.411,1.897,1.897,319.068,296.418,334.169
0.380,50.600,1.789,1.789,319.076,296.522,334.326
0.381,50.793,1.682,1.682,319.081,296.625,334.490
0.382,50.989,1.580,1.580,319.081,296.724,334.659
0.383,51.187,1.485,1.485,319.076,296.818,334.833
0.384,51.385,1.400,1.400,319.063,296.905,335.010
0.385,51.581,1.326,1.326,319.044,296.986,335.188
0.386,51.776,1.262,1.262,319.018,297.059,335.367
0.387,51.968,1.209,1.209,318.986,297.125,335.544
0.388,52.156,1.165,1.165,318.948,297.184,335.719
0.389,52.340,1.130,1.130,318.905,297.235,335.890
0.390,52.518,1.104,1.104,318.856,297.280,336.056
0.391,52.690,1.087,1.087,318.804,297.317,336.216
0.392,52.855,1.077,1.077,318.747,297.347,336.367
0.393,53.011,1.075,1.075,318.687,297.369,336.509
0.394,53.158,1.080,1.080,318.624,297.385,336.641
0.395,53.295,1.092,1.092,318.558,297.393,336.761
0.396,53.422,1.109,1.109,318.489,297.394,336.868
0.397,53.540,1.130,1.130,318.420,297.388,336.963
0.398,53.651,1.156,1.156,318.351,297.377,337.050
0.399,53.755,1.184,1.184,318.284,297.362,337.128
0.400,53.854,1.215,1.215,318.220,297.342,337.200
0.401,53.947,1.246,1.246,318.160,297.319,337.268
0.402,54.036,1.278,1.278,318.106,297.293,337.333
0.403,54.120,1.309,1.309,318.059,297.266,337.398
0.404,54.202,1.339,1.339,318.020,297.238,337.464
0.405,54.281,1.367,1.367,317.991,297.210,337.532
