"T","Distance","Radius","FreeRadius","X","Y","Z"
0.000,0.000,1.119,1.119,321.503,296.648,304.511
0.001,0.148,1.188,1.188,321.421,296.539,304.455
0.002,0.294,1.258,1.258,321.339,296.432,304.399
0.004,0.437,1.326,1.326,321.258,296.327,304.344
0.005,0.575,1.393,1.393,321.180,296.227,304.288
0.006,0.708,1.458,1.458,321.105,296.133,304.233
0.007,0.833,1.521,1.521,321.035,296.045,304.177
0.008,0.950,1.582,1.582,320.968,295.967,304.122
0.010,1.057,1.639,1.639,320.908,295.898,304.067
0.011,1.153,1.693,1.693,320.853,295.840,304.013
0.012,1.238,1.744,1.744,320.806,295.796,303.958
0.013,1.311,1.790,1.790,320.766,295.765,303.905
0.014,1.377,1.833,1.833,320.734,295.744,303.852
0.016,1.436,1.871,1.871,320.707,295.733,303.801
0.017,1.489,1.904,1.904,320.687,295.727,303.751
0.018,1.538,1.933,1.933,320.671,295.724,303.705
0.019,1.582,1.958,1.958,320.660,295.721,303.662
0.020,1.622,1.977,1.977,320.653,295.716,303.624
0.022,1.658,1.991,1.991,320.648,295.706,303.590
0.023,1.692,2.001,2.001,320.646,295.689,303.561
0.024,1.727,2.009,2.009,320.646,295.662,303.538
0.025,1.770,2.016,2.016,320.648,295.623,303.520
0.026,1.821,2.023,2.023,320.650,295.574,303.508
0.027,1.879,2.032,2.032,320.653,295.516,303.498
0.029,1.946,2.043,2.043,320.657,295.450,303.492
0.030,2.018,2.059,2.059,320.661,295.378,303.486
0.031,2.096,2.081,2.081,320.665,295.301,303.480
0.032,2.177,2.107,2.107,320.668,295.220,303.473
0.033,2.261,2.137,2.137,320.672,295.136,303.463
0.035,2.347,2.169,2.169,320.674,295.051,303.450
0.036,2.434,2.202,2.202,320.676,294.967,303.432
0.037,2.520,2.233,2.233,320.677,294.883,303.410
0.038,2.605,2.261,2.261,320.680,294.801,303.390
0.039,2.686,2.285,2.285,320.684,294.721,303.375
0.041,2.764,2.304,2.304,320.693,294.644,303.370
0.042,2.840,2.316,2.316,320.707,294.570,303.380
0.043,2.918,2.321,2.321,320.727,294.501,303.408
0.044,3.006,2.321,2.321,320.756,294.435,303.460
0.045,3.113,2.317,2.317,320.794,294.375,303.540
0.047,3.247,2.308,2.308,320.844,294.321,303.652
0.048,3.414,2.297,2.297,320.905,294.273,303.800
0.049,3.614,2.284,2.284,320.978,294.231,303.982
0.050,3.839,2.269,2.269,321.060,294.196,304.188
0.051,4.080,2.254,2.254,321.149,294.167,304.410
0.053,4.329,2.238,2.238,321.242,294.144,304.639
0.054,4.576,2.224,2.224,321.337,294.127,304.867
0.055,4.813,2.212,2.212,321.431,294.116,305.085
0.056,5.032,2.202,2.202,321.522,294.111,305.283
0.057,5.223,2.195,2.195,321.608,294.112,305.454
0.059,5.379,2.193,2.193,321.686,294.118,305.589
0.060,5.493,2.195,2.195,321.754,294.129,305.680
0.061,5.571,2.203,2.203,321.811,294.143,305.730
0.062,5.621,2.217,2.217,321.857,294.157,305.749
0.063,5.657,2.235,2.235,321.890,294.166,305.743
0.065,5.687,2.257,2.257,321.912,294.169,305.721
0.066,5.718,2.281,2.281,321.920,294.160,305.692
0.067,5.754,2.306,2.306,321.916,294.138,305.664
0.068,5.802,2.330,2.330,321.898,294.098,305.646
0.069,5.870,2.354,2.354,321.866,294.037,305.645
0.070,5.970,2.374,2.374,321.820,293.953,305.671
0.072,6.109,2.391,2.391,321.760,293.842,305.729
0.073,6.282,2.403,2.403,321.693,293.709,305.820
0.074,6.482,2.413,2.413,321.628,293.563,305.938
0.075,6.699,2.420,2.420,321.573,293.410,306.082
0.076,6.927,2.424,2.424,321.536,293.256,306.246
0.078,7.161,2.427,2.427,321.525,293.110,306.429
0.079,7.399,2.429,2.429,321.551,292.979,306.626
0.080,7.644,2.430,2.430,321.619,292.869,306.834
0.081,7.904,2.431,2.431,321.740,292.788,307.049
0.082,8.191,2.432,2.432,321.921,292.743,307.267
0.084,8.520,2.434,2.434,322.167,292.738,307.487
0.085,8.891,2.438,2.438,322.466,292.768,307.703
0.086,9.294,2.444,2.444,322.804,292.827,307.914
0.087,9.718,2.452,2.452,323.168,292.908,308.116
0.088,10.149,2.464,2.464,323.543,293.004,308.307
0.090,10.574,2.480,2.480,323.915,293.109,308.484
0.091,10.978,2.500,2.500,324.270,293.215,308.644
0.092,11.345,2.525,2.525,324.594,293.317,308.783
0.093,11.660,2.554,2.554,324.873,293.406,308.900
0.094,11.909,2.586,2.586,325.093,293.477,308.990
0.096,12.083,2.620,2.620,325.248,293.526,309.054
0.097,12.190,2.655,2.655,325.343,293.556,309.094
0.098,12.241,2.690,2.690,325.388,293.568,309.113
0.099,12.245,2.723,2.723,325.391,293.567,309.116
0.100,12.278,2.754,2.754,325.362,293.555,309.104
0.102,12.338,2.782,2.782,325.310,293.536,309.083
0.103,12.415,2.806,2.806,325.243,293.513,309.055
0.104,12.498,2.826,2.826,325.169,293.488,309.023
0.105,12.578,2.843,2.843,325.099,293.465,308.992
0.106,12.645,2.858,2.858,325.041,293.448,308.964
0.108,12.694,2.870,2.870,324.999,293.437,308.942
0.109,12.726,2.881,2.881,324.971,293.431,308.926
0.110,12.744,2.890,2.890,324.958,293.429,308.915
0.111,12.750,2.898,2.898,324.955,293.431,308.909
0.112,12.758,2.906,2.906,324.962,293.435,308.910
0.114,12.775,2.912,2.912,324.978,293.439,308.915
0.115,12.800,2.917,2.917,324.999,293.444,308.926
0.116,12.831,2.920,2.920,325.026,293.447,308.943
0.117,12.867,2.921,2.921,325.055,293.447,308.965
0.118,12.908,2.919,2.919,325.085,293.444,308.992
0.119,12.952,2.914,2.914,325.115,293.436,309.023
0.121,12.999,2.906,2.906,325.146,293.423,309.056
0.122,13.049,2.894,2.894,325.176,293.405,309.091
0.123,13.101,2.878,2.878,325.207,293.380,309.124
0.124,13.154,2.858,2.858,325.238,293.348,309.154
0.125,13.210,2.836,2.836,325.270,293.309,309.179
0.127,13.270,2.812,2.812,325.301,293.262,309.197
0.128,13.334,2.786,2.786,325.332,293.206,309.207
0.129,13.406,2.759,2.759,325.363,293.141,309.207
0.130,13.488,2.731,2.731,325.394,293.067,309.194
0.131,13.580,2.703,2.703,325.425,292.984,309.171
0.133,13.680,2.676,2.676,325.455,292.894,309.137
0.134,13.786,2.649,2.649,325.484,292.801,309.096
0.135,13.895,2.624,2.624,325.511,292.706,309.050
0.136,14.005,2.600,2.600,325.536,292.611,308.999
0.137,14.113,2.578,2.578,325.559,292.519,308.947
0.139,14.217,2.559,2.559,325.579,292.432,308.895
0.140,14.313,2.542,2.542,325.596,292.352,308.845
0.141,14.398,2.528,2.528,325.609,292.282,308.799
0.142,14.470,2.518,2.518,325.618,292.223,308.758
0.143,14.531,2.511,2.511,325.625,292.173,308.724
0.145,14.582,2.506,2.506,325.632,292.131,308.696
0.146,14.626,2.502,2.502,325.640,292.094,308.674
0.147,14.666,2.498,2.498,325.652,292.059,308.658
0.148,14.707,2.494,2.494,325.670,292.024,308.648
0.149,14.753,2.488,2.488,325.696,291.986,308.645
0.151,14.810,2.479,2.479,325.732,291.942,308.648
0.152,14.880,2.467,2.467,325.780,291.890,308.658
0.153,14.969,2.451,2.451,325.842,291.828,308.674
0.154,15.079,2.433,2.433,325.919,291.754,308.695
0.155,15.205,2.413,2.413,326.009,291.670,308.722
0.157,15.343,2.393,2.393,326.108,291.579,308.752
0.158,15.488,2.375,2.375,326.214,291.484,308.784
0.159,15.637,2.359,2.359,326.322,291.388,308.816
0.160,15.782,2.346,2.346,326.429,291.294,308.846
0.161,15.921,2.339,2.339,326.533,291.206,308.873
0.162,16.048,2.338,2.338,326.628,291.125,308.896
0.164,16.159,2.343,2.343,326.713,291.057,308.913
0.165,16.248,2.352,2.352,326.784,291.002,308.922
0.166,16.315,2.364,2.364,326.839,290.964,308.922
0.167,16.362,2.377,2.377,326.878,290.939,308.915
0.168,16.395,2.389,2.389,326.905,290.925,308.902
0.170,16.420,2.399,2.399,326.922,290.917,308.885
0.171,16.442,2.406,2.406,326.929,290.914,308.865
0.172,16.464,2.407,2.407,326.931,290.912,308.843
0.173,16.486,2.403,2.403,326.928,290.908,308.822
0.174,16.509,2.393,2.393,326.923,290.898,308.802
0.176,16.534,2.377,2.377,326.918,290.880,308.785
0.177,16.567,2.357,2.357,326.914,290.850,308.772
0.178,16.611,2.332,2.332,326.914,290.806,308.765
0.179,16.667,2.302,2.302,326.919,290.751,308.761
0.180,16.735,2.269,2.269,326.930,290.684,308.759
0.182,16.815,2.232,2.232,326.948,290.606,308.758
0.183,16.905,2.192,2.192,326.973,290.519,308.757
0.184,17.007,2.150,2.150,327.008,290.423,308.754
0.185,17.119,2.107,2.107,327.052,290.320,308.747
0.186,17.242,2.064,2.064,327.108,290.211,308.736
0.188,17.377,2.024,2.024,327.176,290.097,308.718
0.189,17.522,1.987,1.987,327.257,289.978,308.694
0.190,17.679,1.955,1.955,327.350,289.856,308.662
0.191,17.844,1.928,1.928,327.452,289.733,308.624
0.192,18.013,1.909,1.909,327.561,289.610,308.583
0.194,18.184,1.897,1.897,327.673,289.488,308.539
0.195,18.352,1.892,1.892,327.785,289.370,308.496
0.196,18.515,1.891,1.891,327.894,289.257,308.455
0.197,18.668,1.894,1.894,327.997,289.150,308.418
0.198,18.808,1.899,1.899,328.091,289.050,308.386
0.200,18.932,1.905,1.905,328.173,288.961,308.362
0.201,19.036,1.909,1.909,328.239,288.882,308.347
0.202,19.121,1.912,1.912,328.291,288.815,308.342
0.203,19.189,1.911,1.911,328.329,288.759,308.344
0.204,19.242,1.907,1.907,328.355,288.713,308.352
0.205,19.284,1.901,1.901,328.372,288.677,308.364
0.207,19.316,1.894,1.894,328.381,288.650,308.379
0.208,19.340,1.887,1.886,328.385,288.632,308.395
0.209,19.359,1.880,1.880,328.384,288.622,308.410
0.210,19.372,1.874,1.874,328.382,288.621,308.424
0.211,19.384,1.871,1.871,328.379,288.626,308.433
0.213,19.397,1.872,1.872,328.379,288.639,308.438
0.214,19.413,1.875,1.875,328.380,288.654,308.436
0.215,19.430,1.881,1.881,328.384,288.669,308.429
0.216,19.447,1.887,1.887,328.389,288.679,308.415
0.217,19.468,1.893,1.893,328.397,288.680,308.395
0.219,19.499,1.897,1.897,328.406,288.666,308.369
0.220,19.545,1.899,1.899,328.417,288.635,308.337
0.221,19.612,1.897,1.897,328.429,288.582,308.299
0.222,19.705,1.890,1.890,328.442,288.502,308.253
0.223,19.828,1.877,1.877,328.457,288.391,308.201
0.225,19.985,1.858,1.858,328.472,288.247,308.143
0.226,20.169,1.836,1.836,328.488,288.074,308.080
0.227,20.373,1.810,1.810,328.502,287.882,308.014
0.228,20.588,1.783,1.782,328.515,287.679,307.946
0.229,20.805,1.754,1.754,328.526,287.472,307.880
0.231,21.016,1.725,1.725,328.533,287.271,307.816
0.232,21.213,1.697,1.697,328.535,287.083,307.757
0.233,21.387,1.671,1.671,328.532,286.917,307.705
0.234,21.531,1.648,1.649,328.523,286.780,307.661
0.235,21.635,1.629,1.629,328.507,286.683,307.628
0.237,21.698,1.613,1.613,328.484,286.628,307.607
0.238,21.733,1.601,1.601,328.456,286.610,307.595
0.239,21.762,1.593,1.594,328.428,286.619,307.592
0.240,21.799,1.591,1.592,328.403,286.645,307.595
0.241,21.838,1.594,1.595,328.385,286.680,307.603
0.243,21.873,1.604,1.604,328.378,286.713,307.612
0.244,21.899,1.619,1.619,328.384,286.736,307.620
0.245,21.924,1.640,1.639,328.408,286.738,307.627
0.246,21.976,1.666,1.664,328.453,286.712,307.630
0.247,22.072,1.695,1.693,328.523,286.646,307.626
0.249,22.217,1.728,1.726,328.620,286.538,307.615
0.250,22.404,1.762,1.760,328.737,286.395,307.597
0.251,22.622,1.798,1.797,328.871,286.224,307.574
0.252,22.861,1.835,1.834,329.016,286.036,307.545
0.253,23.112,1.871,1.872,329.166,285.838,307.513
0.254,23.363,1.906,1.909,329.316,285.640,307.478
0.256,23.605,1.940,1.945,329.462,285.449,307.442
0.257,23.829,1.974,1.981,329.597,285.276,307.405
0.258,24.022,2.006,2.014,329.717,285.128,307.367
0.259,24.178,2.037,2.046,329.816,285.014,307.332
0.260,24.291,2.067,2.074,329.894,284.938,307.298
0.262,24.373,2.096,2.100,329.956,284.895,307.268
0.263,24.433,2.123,2.122,330.009,284.880,307.243
0.264,24.487,2.148,2.140,330.058,284.889,307.223
0.265,24.547,2.174,2.158,330.110,284.917,307.211
0.266,24.621,2.200,2.177,330.172,284.958,307.208
0.268,24.713,2.228,2.200,330.249,285.008,307.214
0.269,24.827,2.259,2.228,330.347,285.062,307.231
0.270,24.967,2.294,2.266,330.473,285.116,307.261
0.271,25.139,2.335,2.315,330.633,285.164,307.304
0.272,25.344,2.382,2.377,330.826,285.203,307.358
0.274,25.573,2.437,2.455,331.044,285.233,307.422
0.275,25.819,2.498,2.545,331.280,285.253,307.490
0.276,26.075,2.563,2.644,331.526,285.262,307.560
0.277,26.332,2.629,2.745,331.774,285.260,307.628
0.278,26.584,2.694,2.844,332.017,285.244,307.689
0.280,26.822,2.755,2.936,332.248,285.215,307.741
0.281,27.039,2.811,3.015,332.458,285.172,307.781
0.282,27.232,2.857,3.076,332.639,285.113,307.803
0.283,27.396,2.893,3.115,332.786,285.039,307.806
0.284,27.539,2.917,3.129,332.898,284.952,307.789
0.286,27.670,2.930,3.122,332.980,284.856,307.754
0.287,27.795,2.934,3.099,333.038,284.756,307.706
0.288,27.918,2.932,3.063,333.078,284.657,307.645
0.289,28.037,2.923,3.020,333.104,284.564,307.575
0.290,28.151,2.912,2.974,333.122,284.482,307.498
0.292,28.257,2.898,2.929,333.136,284.414,307.417
0.293,28.354,2.885,2.889,333.154,284.367,307.335
0.294,28.442,2.872,2.858,333.179,284.344,307.254
0.295,28.529,2.862,2.836,333.217,284.349,307.176
0.296,28.623,2.852,2.822,333.268,284.377,307.103
0.297,28.727,2.842,2.812,333.331,284.423,307.034
0.299,28.839,2.832,2.806,333.406,284.476,306.970
0.300,28.957,2.820,2.801,333.492,284.531,306.911
0.301,29.077,2.808,2.796,333.587,284.580,306.857
0.302,29.197,2.793,2.789,333.692,284.614,306.808
0.303,29.318,2.775,2.777,333.804,284.627,306.766
0.305,29.444,2.755,2.760,333.924,284.610,306.729
0.306,29.584,2.733,2.741,334.050,284.557,306.698
0.307,29.749,2.712,2.720,334.182,284.462,306.674
0.308,29.938,2.693,2.700,334.317,284.330,306.655
0.309,30.150,2.677,2.683,334.454,284.169,306.640
0.311,30.378,2.667,2.671,334.593,283.988,306.628
0.312,30.616,2.663,2.665,334.731,283.795,306.618
0.313,30.855,2.667,2.667,334.866,283.598,306.609
0.314,31.089,2.680,2.679,334.997,283.405,306.599
0.315,31.309,2.701,2.699,335.123,283.225,306.588
0.317,31.509,2.728,2.726,335.242,283.064,306.574
0.318,31.682,2.759,2.757,335.352,282.933,306.556
0.319,31.824,2.791,2.790,335.453,282.834,306.534
0.320,31.942,2.824,2.822,335.543,282.762,306.509
0.321,32.040,2.853,2.853,335.622,282.710,306.486
0.323,32.122,2.879,2.879,335.689,282.669,306.465
0.324,32.190,2.898,2.898,335.745,282.631,306.449
0.325,32.251,2.911,2.911,335.788,282.590,306.441
0.326,32.312,2.920,2.921,335.819,282.538,306.444
0.327,32.387,2.929,2.929,335.837,282.466,306.459
0.329,32.491,2.939,2.940,335.841,282.367,306.490
0.330,32.633,2.954,2.954,335.830,282.234,306.538
0.331,32.817,2.976,2.976,335.807,282.063,306.604
0.332,33.035,3.008,3.008,335.771,281.864,306.686
0.333,33.277,3.053,3.053,335.727,281.645,306.779
0.335,33.534,3.112,3.112,335.677,281.415,306.880
0.336,33.796,3.183,3.183,335.622,281.182,306.986
0.337,34.052,3.261,3.260,335.566,280.955,307.093
0.338,34.295,3.341,3.341,335.511,280.743,307.198
0.339,34.514,3.421,3.421,335.459,280.556,307.297
0.341,34.699,3.495,3.495,335.412,280.401,307.387
0.342,34.842,3.560,3.560,335.374,280.287,307.465
0.343,34.941,3.611,3.611,335.345,280.216,307.528
0.344,35.005,3.645,3.645,335.324,280.179,307.577
0.345,35.042,3.662,3.662,335.312,280.170,307.610
0.346,35.062,3.663,3.663,335.307,280.178,307.627
0.348,35.081,3.654,3.654,335.309,280.196,307.629
0.349,35.107,3.637,3.637,335.317,280.217,307.614
0.350,35.144,3.616,3.616,335.330,280.231,307.582
0.351,35.196,3.594,3.594,335.349,280.230,307.534
0.352,35.270,3.574,3.574,335.373,280.207,307.468
0.354,35.372,3.559,3.559,335.400,280.153,307.385
0.355,35.505,3.553,3.553,335.430,280.069,307.287
0.356,35.661,3.555,3.555,335.463,279.960,307.180
0.357,35.833,3.563,3.563,335.497,279.833,307.069
0.358,36.013,3.576,3.576,335.531,279.694,306.959
0.360,36.195,3.595,3.595,335.565,279.549,306.856
0.361,36.369,3.617,3.617,335.597,279.404,306.765
0.362,36.528,3.642,3.642,335.627,279.266,306.692
0.363,36.666,3.668,3.668,335.654,279.140,306.641
0.364,36.778,3.696,3.696,335.677,279.033,306.619
0.366,36.863,3.723,3.723,335.695,278.951,306.629
0.367,36.935,3.749,3.749,335.708,278.893,306.669
0.368,37.011,3.774,3.774,335.717,278.856,306.734
0.369,37.097,3.797,3.797,335.723,278.837,306.818
0.370,37.193,3.818,3.818,335.726,278.833,306.914
0.372,37.297,3.835,3.835,335.727,278.842,307.018
0.373,37.403,3.847,3.847,335.726,278.859,307.122
0.374,37.505,3.855,3.855,335.725,278.883,307.222
0.375,37.598,3.858,3.858,335.724,278.909,307.311
0.376,37.675,3.857,3.857,335.724,278.936,307.383
0.378,37.731,3.852,3.852,335.724,278.959,307.434
0.379,37.769,3.846,3.846,335.726,278.978,307.467
0.380,37.792,3.838,3.838,335.728,278.991,307.486
0.381,37.806,3.830,3.830,335.731,278.997,307.498
0.382,37.816,3.824,3.824,335.733,278.995,307.507
0.384,37.833,3.819,3.819,335.734,278.983,307.520
0.385,37.863,3.817,3.817,335.734,278.961,307.540
0.386,37.911,3.818,3.818,335.732,278.927,307.574
0.387,37.983,3.823,3.823,335.729,278.879,307.627
0.388,38.081,3.831,3.831,335.722,278.818,307.705
0.389,38.211,3.844,3.844,335.713,278.741,307.809
0.391,38.367,3.860,3.860,335.702,278.653,307.937
0.392,38.542,3.879,3.879,335.689,278.555,308.081
0.393,38.729,3.903,3.903,335.676,278.451,308.236
0.394,38.921,3.932,3.932,335.663,278.344,308.395
0.395,39.112,3.964,3.964,335.652,278.237,308.553
0.397,39.296,3.999,3.999,335.642,278.133,308.704
0.398,39.464,4.035,4.035,335.634,278.035,308.840
0.399,39.611,4.071,4.071,335.631,277.946,308.957
0.400,39.730,4.106,4.106,335.631,277.869,309.048
0.401,39.818,4.138,4.138,335.636,277.806,309.110
0.403,39.882,4.166,4.166,335.643,277.755,309.148
0.404,39.926,4.190,4.190,335.651,277.716,309.166
0.405,39.957,4.207,4.207,335.658,277.686,309.171
0.406,39.981,4.217,4.217,335.662,277.663,309.167
0.407,39.999,4.221,4.221,335.662,277.647,309.159
0.409,40.015,4.219,4.219,335.654,277.634,309.153
0.410,40.034,4.210,4.210,335.638,277.624,309.155
0.411,40.065,4.195,4.195,335.611,277.615,309.169
0.412,40.117,4.174,4.174,335.571,277.606,309.200
0.413,40.191,4.147,4.147,335.519,277.594,309.251
0.415,40.286,4.114,4.114,335.455,277.581,309.320
0.416,40.398,4.076,4.076,335.379,277.568,309.403
0.417,40.526,4.035,4.035,335.295,277.553,309.497
0.418,40.667,3.993,3.993,335.201,277.539,309.601
0.419,40.816,3.950,3.950,335.100,277.524,309.711
0.421,40.972,3.910,3.910,334.994,277.510,309.824
0.422,41.132,3.873,3.873,334.882,277.496,309.937
0.423,41.293,3.842,3.842,334.766,277.484,310.048
0.424,41.452,3.818,3.818,334.648,277.473,310.154
0.425,41.608,3.802,3.802,334.530,277.463,310.255
0.427,41.760,3.794,3.794,334.414,277.453,310.353
0.428,41.907,3.792,3.792,334.305,277.442,310.450
0.429,42.049,3.793,3.793,334.204,277.428,310.549
0.430,42.185,3.797,3.797,334.115,277.412,310.651
0.431,42.318,3.800,3.800,334.041,277.390,310.760
0.432,42.450,3.802,3.802,333.986,277.364,310.877
0.434,42.586,3.800,3.800,333.952,277.330,311.004
0.435,42.733,3.792,3.792,333.942,277.289,311.145
0.436,42.897,3.779,3.779,333.960,277.239,311.300
0.437,43.080,3.761,3.761,334.002,277.180,311.468
0.438,43.280,3.740,3.740,334.065,277.116,311.646
0.440,43.490,3.716,3.716,334.142,277.048,311.830
0.441,43.706,3.691,3.691,334.229,276.977,312.015
0.442,43.922,3.666,3.666,334.320,276.906,312.197
0.443,44.131,3.642,3.642,334.409,276.838,312.373
0.444,44.328,3.620,3.620,334.492,276.772,312.539
0.446,44.506,3.602,3.602,334.564,276.713,312.690
0.447,44.659,3.587,3.587,334.619,276.661,312.824
0.448,44.782,3.575,3.575,334.652,276.618,312.935
0.449,44.880,3.564,3.564,334.667,276.585,313.025
0.450,44.956,3.555,3.555,334.671,276.559,313.097
0.452,45.015,3.547,3.547,334.669,276.539,313.153
0.453,45.060,3.539,3.539,334.667,276.524,313.194
0.454,45.092,3.531,3.531,334.673,276.513,313.224
0.455,45.122,3.522,3.522,334.691,276.503,313.245
0.456,45.163,3.513,3.513,334.729,276.495,313.260
0.458,45.228,3.504,3.504,334.792,276.486,313.270
0.459,45.324,3.497,3.497,334.888,276.476,313.278
0.460,45.456,3.493,3.493,335.019,276.462,313.286
0.461,45.620,3.493,3.493,335.181,276.444,313.297
0.462,45.807,3.497,3.497,335.366,276.422,313.312
0.464,46.010,3.507,3.507,335.566,276.393,313.333
0.465,46.222,3.523,3.523,335.774,276.358,313.361
0.466,46.437,3.547,3.547,335.981,276.315,313.399
0.467,46.648,3.578,3.578,336.179,276.264,313.448
0.468,46.850,3.614,3.614,336.362,276.204,313.510
0.470,47.040,3.655,3.655,336.520,276.133,313.586
0.471,47.217,3.700,3.700,336.647,276.051,313.680
0.472,47.388,3.747,3.747,336.738,275.958,313.790
0.473,47.560,3.796,3.796,336.798,275.856,313.915
0.474,47.737,3.846,3.846,336.834,275.749,314.052
0.476,47.919,3.896,3.896,336.854,275.640,314.197
0.477,48.104,3.944,3.944,336.865,275.533,314.346
0.478,48.288,3.992,3.992,336.873,275.429,314.498
0.479,48.467,4.038,4.038,336.886,275.332,314.648
0.480,48.638,4.082,4.082,336.912,275.246,314.793
0.481,48.799,4.124,4.124,336.956,275.174,314.931
0.483,48.955,4.164,4.164,337.027,275.118,315.057
0.484,49.110,4.201,4.201,337.126,275.080,315.171
0.485,49.270,4.235,4.235,337.248,275.058,315.271
0.486,49.434,4.265,4.265,337.388,275.050,315.357
