"T","Distance","Radius","FreeRadius","X","Y","Z"
0.000,0.000,1.119,1.119,321.503,296.648,304.511
0.002,0.128,1.169,1.169,321.432,296.554,304.462
0.004,0.255,1.219,1.219,321.360,296.460,304.414
0.006,0.380,1.270,1.270,321.290,296.369,304.366
0.007,0.502,1.323,1.323,321.221,296.280,304.318
0.009,0.621,1.378,1.378,321.155,296.195,304.269
0.011,0.734,1.436,1.436,321.091,296.114,304.221
0.013,0.842,1.497,1.497,321.030,296.039,304.173
0.015,0.943,1.558,1.558,320.972,295.971,304.126
0.017,1.037,1.619,1.619,320.919,295.910,304.078
0.018,1.123,1.678,1.678,320.870,295.858,304.031
0.020,1.200,1.734,1.734,320.827,295.815,303.983
0.022,1.269,1.785,1.785,320.789,295.782,303.936
0.024,1.330,1.831,1.831,320.757,295.758,303.890
0.026,1.386,1.872,1.872,320.730,295.742,303.844
0.028,1.436,1.906,1.906,320.707,295.733,303.800
0.029,1.483,1.934,1.934,320.689,295.727,303.757
0.031,1.526,1.955,1.955,320.675,295.724,303.717
0.033,1.566,1.968,1.968,320.664,295.722,303.679
0.035,1.602,1.977,1.977,320.656,295.719,303.643
0.037,1.635,1.982,1.982,320.651,295.713,303.611
0.039,1.665,1.986,1.986,320.648,295.703,303.583
0.040,1.694,1.990,1.990,320.646,295.687,303.559
0.042,1.726,1.995,1.995,320.646,295.664,303.539
0.044,1.761,2.002,2.002,320.647,295.631,303.523
0.046,1.804,2.010,2.010,320.649,295.591,303.511
0.048,1.852,2.021,2.021,320.651,295.543,303.502
0.050,1.906,2.033,2.033,320.654,295.490,303.496
0.051,1.966,2.047,2.047,320.658,295.431,303.490
0.053,2.029,2.063,2.063,320.661,295.367,303.485
0.055,2.097,2.081,2.081,320.664,295.300,303.480
0.057,2.168,2.102,2.102,320.668,295.229,303.474
0.059,2.240,2.124,2.124,320.671,295.157,303.466
0.061,2.315,2.148,2.148,320.673,295.084,303.456
0.062,2.390,2.174,2.174,320.675,295.010,303.442
0.064,2.465,2.202,2.202,320.677,294.937,303.424
0.066,2.540,2.230,2.230,320.678,294.864,303.405
0.068,2.613,2.258,2.258,320.680,294.793,303.387
0.070,2.684,2.284,2.284,320.685,294.724,303.374
0.072,2.751,2.309,2.309,320.692,294.657,303.369
0.073,2.817,2.330,2.330,320.703,294.592,303.373
0.075,2.883,2.348,2.348,320.718,294.530,303.391
0.077,2.954,2.359,2.359,320.739,294.472,303.425
0.079,3.036,2.362,2.362,320.767,294.417,303.479
0.081,3.133,2.357,2.357,320.802,294.366,303.554
0.083,3.252,2.341,2.341,320.845,294.320,303.655
0.084,3.397,2.319,2.319,320.898,294.278,303.783
0.086,3.567,2.295,2.295,320.959,294.241,303.938
0.088,3.757,2.272,2.272,321.027,294.209,304.112
0.090,3.962,2.256,2.256,321.101,294.182,304.301
0.092,4.175,2.250,2.250,321.179,294.159,304.498
0.094,4.392,2.254,2.254,321.260,294.141,304.698
0.095,4.606,2.265,2.265,321.342,294.127,304.895
0.097,4.811,2.278,2.278,321.424,294.118,305.084
0.099,5.003,2.288,2.288,321.504,294.113,305.257
0.101,5.174,2.291,2.291,321.581,294.112,305.411
0.103,5.320,2.284,2.284,321.652,294.115,305.538
0.105,5.436,2.268,2.268,321.718,294.122,305.633
0.106,5.521,2.249,2.249,321.776,294.132,305.694
0.108,5.581,2.229,2.229,321.825,294.143,305.726
0.110,5.624,2.213,2.213,321.866,294.154,305.735
0.112,5.658,2.204,2.204,321.898,294.162,305.726
0.114,5.688,2.203,2.203,321.920,294.164,305.706
0.116,5.718,2.207,2.207,321.932,294.159,305.680
0.117,5.747,2.214,2.214,321.934,294.146,305.654
0.119,5.781,2.220,2.220,321.924,294.120,305.634
0.121,5.826,2.223,2.223,321.902,294.081,305.625
0.123,5.891,2.221,2.221,321.868,294.027,305.635
0.125,5.983,2.214,2.214,321.822,293.955,305.668
0.127,6.108,2.207,2.207,321.763,293.864,305.730
0.128,6.262,2.200,2.200,321.696,293.756,305.818
0.130,6.439,2.198,2.198,321.628,293.636,305.930
0.132,6.632,2.203,2.203,321.565,293.509,306.060
0.134,6.834,2.214,2.214,321.514,293.378,306.206
0.136,7.041,2.229,2.229,321.481,293.249,306.363
0.138,7.247,2.246,2.246,321.473,293.124,306.527
0.139,7.452,2.261,2.261,321.495,293.009,306.695
0.141,7.656,2.273,2.273,321.555,292.908,306.863
0.143,7.867,2.279,2.279,321.659,292.825,307.026
0.145,8.094,2.281,2.281,321.813,292.764,307.182
0.147,8.351,2.283,2.283,322.023,292.731,307.325
0.149,8.645,2.287,2.287,322.286,292.724,307.457
0.150,8.974,2.297,2.297,322.590,292.741,307.582
0.152,9.329,2.316,2.316,322.922,292.780,307.702
0.154,9.701,2.343,2.343,323.269,292.836,307.823
0.156,10.079,2.376,2.376,323.618,292.908,307.949
0.158,10.453,2.410,2.410,323.958,292.991,308.082
0.160,10.814,2.442,2.442,324.274,293.083,308.228
0.161,11.153,2.468,2.468,324.556,293.181,308.390
0.163,11.466,2.484,2.484,324.789,293.282,308.572
0.165,11.753,2.493,2.493,324.962,293.382,308.779
0.167,12.026,2.496,2.496,325.061,293.479,309.014
0.169,12.306,2.496,2.496,325.080,293.570,309.278
0.171,12.610,2.496,2.496,325.029,293.656,309.565
0.172,12.942,2.498,2.498,324.919,293.735,309.868
0.174,13.298,2.504,2.504,324.759,293.808,310.178
0.176,13.672,2.516,2.516,324.563,293.875,310.489
0.178,14.053,2.535,2.535,324.341,293.936,310.793
0.180,14.431,2.563,2.563,324.105,293.991,311.083
0.182,14.794,2.600,2.600,323.865,294.041,311.351
0.183,15.130,2.647,2.647,323.633,294.084,311.590
0.185,15.426,2.701,2.701,323.420,294.121,311.791
0.187,15.669,2.756,2.756,323.237,294.152,311.949
0.189,15.849,2.808,2.808,323.095,294.178,312.057
0.191,15.971,2.852,2.852,322.992,294.198,312.118
0.193,16.043,2.882,2.882,322.925,294.212,312.142
0.194,16.081,2.898,2.898,322.889,294.222,312.138
0.196,16.108,2.903,2.903,322.879,294.228,312.114
0.198,16.145,2.901,2.901,322.891,294.229,312.078
0.200,16.194,2.897,2.897,322.921,294.227,312.040
0.202,16.247,2.894,2.894,322.963,294.222,312.008
0.204,16.300,2.896,2.896,323.013,294.215,311.991
0.206,16.355,2.903,2.903,323.067,294.205,311.997
0.207,16.422,2.914,2.914,323.120,294.193,312.036
0.209,16.515,2.928,2.928,323.167,294.180,312.116
0.211,16.644,2.945,2.945,323.207,294.166,312.237
0.213,16.804,2.962,2.962,323.240,294.151,312.393
0.215,16.991,2.981,2.981,323.266,294.136,312.577
0.217,17.197,3.004,3.004,323.286,294.121,312.782
0.218,17.416,3.033,3.033,323.300,294.106,313.000
0.220,17.640,3.071,3.071,323.309,294.092,313.224
0.222,17.863,3.120,3.120,323.313,294.078,313.446
0.224,18.077,3.180,3.180,323.313,294.067,313.660
0.226,18.276,3.249,3.249,323.309,294.057,313.858
0.228,18.451,3.320,3.320,323.301,294.049,314.033
0.229,18.596,3.387,3.387,323.291,294.043,314.177
0.231,18.706,3.443,3.443,323.279,294.040,314.287
0.233,18.787,3.483,3.483,323.264,294.038,314.366
0.235,18.844,3.505,3.505,323.247,294.035,314.421
0.237,18.886,3.513,3.513,323.228,294.031,314.458
0.239,18.918,3.512,3.512,323.208,294.024,314.482
0.240,18.949,3.507,3.507,323.186,294.013,314.500
0.242,18.983,3.501,3.501,323.162,293.995,314.518
0.244,19.026,3.500,3.500,323.137,293.971,314.541
0.246,19.081,3.504,3.504,323.111,293.937,314.577
0.248,19.154,3.515,3.515,323.084,293.894,314.629
0.250,19.253,3.533,3.533,323.056,293.839,314.706
0.251,19.381,3.558,3.558,323.028,293.771,314.812
0.253,19.538,3.591,3.591,322.999,293.691,314.944
0.255,19.719,3.632,3.632,322.969,293.602,315.098
0.257,19.917,3.681,3.681,322.940,293.504,315.268
0.259,20.127,3.735,3.735,322.911,293.400,315.448
0.261,20.343,3.794,3.794,322.883,293.292,315.633
0.262,20.559,3.858,3.858,322.855,293.181,315.816
0.264,20.770,3.924,3.924,322.828,293.070,315.994
0.266,20.970,3.990,3.990,322.803,292.960,316.159
0.268,21.154,4.051,4.051,322.779,292.853,316.307
0.270,21.317,4.103,4.103,322.756,292.751,316.431
0.272,21.453,4.142,4.142,322.736,292.656,316.527
0.273,21.562,4.163,4.163,322.718,292.571,316.592
0.275,21.647,4.166,4.166,322.702,292.498,316.632
0.277,21.708,4.156,4.156,322.690,292.441,316.650
0.279,21.746,4.140,4.140,322.682,292.403,316.650
0.281,21.767,4.123,4.123,322.678,292.388,316.638
0.283,21.790,4.111,4.111,322.678,292.398,316.617
0.284,21.837,4.109,4.109,322.684,292.438,316.592
0.286,21.914,4.114,4.114,322.695,292.510,316.567
0.288,22.025,4.121,4.121,322.713,292.617,316.547
0.290,22.174,4.125,4.125,322.737,292.764,316.536
0.292,22.365,4.120,4.120,322.768,292.952,316.538
0.294,22.601,4.100,4.100,322.806,293.185,316.557
0.295,22.877,4.068,4.068,322.851,293.454,316.591
0.297,23.184,4.030,4.030,322.902,293.754,316.638
0.299,23.515,3.998,3.998,322.956,294.076,316.695
0.301,23.863,3.980,3.980,323.014,294.412,316.760
0.303,24.219,3.986,3.986,323.073,294.756,316.831
0.305,24.575,4.024,4.024,323.134,295.099,316.904
0.306,24.923,4.090,4.090,323.194,295.434,316.979
0.308,25.256,4.172,4.172,323.253,295.753,317.053
0.310,25.565,4.263,4.263,323.309,296.049,317.122
0.312,25.843,4.352,4.352,323.362,296.314,317.185
0.314,26.081,4.429,4.429,323.410,296.541,317.239
0.316,26.280,4.491,4.491,323.453,296.730,317.285
0.317,26.443,4.539,4.539,323.492,296.884,317.322
0.319,26.575,4.576,4.576,323.527,297.007,317.352
0.321,26.679,4.605,4.605,323.558,297.104,317.375
0.323,26.758,4.628,4.628,323.585,297.177,317.392
0.325,26.818,4.648,4.648,323.610,297.230,317.404
0.327,26.862,4.665,4.665,323.631,297.267,317.411
0.328,26.894,4.680,4.680,323.650,297.293,317.413
0.330,26.918,4.693,4.693,323.667,297.310,317.413
0.332,26.938,4.704,4.704,323.682,297.322,317.410
0.334,26.956,4.713,4.713,323.696,297.334,317.405
0.336,26.975,4.720,4.720,323.709,297.347,317.399
0.338,26.995,4.725,4.725,323.720,297.360,317.391
0.339,27.014,4.727,4.727,323.730,297.375,317.383
0.341,27.034,4.725,4.725,323.739,297.390,317.375
0.343,27.053,4.720,4.720,323.747,297.406,317.365
0.345,27.072,4.710,4.710,323.754,297.421,317.356
0.347,27.090,4.698,4.698,323.760,297.435,317.347
0.349,27.107,4.684,4.684,323.765,297.448,317.338
0.350,27.122,4.669,4.669,323.769,297.460,317.330
0.352,27.136,4.656,4.656,323.773,297.470,317.322
0.354,27.146,4.645,4.645,323.776,297.479,317.316
0.356,27.154,4.638,4.638,323.778,297.484,317.310
0.358,27.160,4.634,4.634,323.779,297.488,317.306
0.360,27.164,4.632,4.632,323.780,297.491,317.303
0.361,27.166,4.631,4.631,323.780,297.492,317.301
0.363,27.168,4.632,4.632,323.780,297.492,317.300
0.365,27.168,4.633,4.633,323.779,297.492,317.300
0.367,27.169,4.634,4.634,323.778,297.493,317.300
0.369,27.171,4.636,4.636,323.777,297.494,317.301
0.371,27.174,4.637,4.637,323.776,297.496,317.303
0.372,27.178,4.638,4.638,323.775,297.499,317.305
0.374,27.185,4.639,4.639,323.774,297.505,317.307
0.376,27.193,4.640,4.640,323.773,297.513,317.310
0.378,27.205,4.640,4.640,323.772,297.524,317.313
0.380,27.220,4.640,4.640,323.771,297.539,317.315
0.382,27.239,4.639,4.639,323.769,297.559,317.315
0.383,27.265,4.638,4.638,323.767,297.584,317.314
0.385,27.296,4.636,4.636,323.765,297.615,317.310
0.387,27.335,4.633,4.633,323.761,297.654,317.303
0.389,27.383,4.628,4.628,323.756,297.700,317.292
0.391,27.440,4.619,4.619,323.750,297.754,317.276
0.393,27.508,4.606,4.606,323.743,297.819,317.256
0.394,27.587,4.588,4.588,323.734,297.893,317.230
0.396,27.679,4.564,4.564,323.723,297.978,317.198
0.398,27.784,4.538,4.538,323.710,298.074,317.159
0.400,27.898,4.511,4.511,323.697,298.179,317.115
0.402,28.021,4.485,4.485,323.682,298.291,317.066
0.404,28.149,4.464,4.464,323.669,298.407,317.014
0.406,28.280,4.448,4.448,323.656,298.526,316.959
0.407,28.412,4.437,4.437,323.644,298.645,316.903
0.409,28.543,4.428,4.428,323.635,298.762,316.846
0.411,28.670,4.421,4.421,323.628,298.875,316.789
0.413,28.791,4.412,4.412,323.626,298.982,316.733
0.415,28.903,4.399,4.399,323.627,299.081,316.679
0.417,29.005,4.383,4.383,323.633,299.169,316.628
0.418,29.095,4.364,4.364,323.645,299.245,316.582
0.420,29.174,4.347,4.347,323.660,299.310,316.539
0.422,29.241,4.332,4.332,323.676,299.364,316.502
0.424,29.298,4.323,4.323,323.691,299.409,316.471
0.426,29.345,4.321,4.321,323.702,299.446,316.445
0.428,29.381,4.325,4.325,323.708,299.477,316.427
0.429,29.409,4.332,4.332,323.706,299.502,316.415
0.431,29.433,4.341,4.341,323.694,299.523,316.411
0.433,29.464,4.347,4.347,323.669,299.540,316.415
0.435,29.509,4.349,4.349,323.629,299.556,316.428
0.437,29.572,4.345,4.345,323.572,299.572,316.450
0.439,29.656,4.335,4.335,323.496,299.588,316.482
0.440,29.760,4.320,4.320,323.401,299.605,316.522
0.442,29.882,4.302,4.302,323.292,299.623,316.570
0.444,30.016,4.280,4.280,323.170,299.640,316.624
0.446,30.159,4.256,4.256,323.040,299.658,316.681
0.448,30.308,4.230,4.230,322.905,299.675,316.741
0.450,30.459,4.205,4.205,322.768,299.691,316.802
0.451,30.607,4.180,4.180,322.632,299.706,316.861
0.453,30.750,4.158,4.158,322.502,299.718,316.918
0.455,30.883,4.140,4.140,322.380,299.729,316.971
0.457,31.003,4.126,4.126,322.270,299.737,317.017
0.459,31.105,4.116,4.116,322.175,299.742,317.056
0.461,31.189,4.109,4.109,322.097,299.744,317.086
0.462,31.256,4.105,4.105,322.034,299.745,317.109
0.464,31.309,4.103,4.103,321.983,299.743,317.126
0.466,31.352,4.104,4.104,321.943,299.742,317.137
0.468,31.385,4.105,4.105,321.910,299.742,317.144
0.470,31.414,4.106,4.106,321.882,299.743,317.149
0.472,31.439,4.107,4.107,321.857,299.747,317.152
0.473,31.465,4.105,4.105,321.833,299.755,317.156
0.475,31.495,4.100,4.100,321.806,299.768,317.160
0.477,31.532,4.091,4.091,321.775,299.786,317.166
0.479,31.578,4.078,4.078,321.737,299.811,317.175
0.481,31.637,4.063,4.063,321.690,299.843,317.190
0.483,31.706,4.045,4.045,321.635,299.882,317.208
0.484,31.784,4.024,4.024,321.574,299.925,317.229
0.486,31.868,4.001,4.001,321.509,299.972,317.254
0.488,31.954,3.977,3.977,321.442,300.019,317.281
0.490,32.042,3.952,3.952,321.374,300.067,317.309
0.492,32.127,3.927,3.927,321.309,300.113,317.338
0.494,32.208,3.904,3.904,321.247,300.156,317.367
0.495,32.281,3.883,3.883,321.191,300.193,317.396
0.497,32.345,3.864,3.864,321.142,300.224,317.424
0.499,32.397,3.848,3.848,321.103,300.247,317.449
0.501,32.435,3.835,3.835,321.075,300.259,317.472
0.503,32.461,3.823,3.823,321.058,300.263,317.492
0.505,32.481,3.813,3.813,321.048,300.260,317.509
0.506,32.496,3.805,3.805,321.042,300.253,317.521
0.508,32.509,3.798,3.798,321.036,300.246,317.530
0.510,32.521,3.793,3.793,321.026,300.242,317.534
0.512,32.537,3.789,3.789,321.010,300.242,317.534
0.514,32.566,3.786,3.786,320.983,300.251,317.528
0.516,32.613,3.784,3.784,320.942,300.270,317.517
0.517,32.683,3.781,3.781,320.883,300.304,317.500
0.519,32.780,3.776,3.776,320.804,300.354,317.477
0.521,32.909,3.765,3.765,320.699,300.425,317.447
0.523,33.072,3.745,3.745,320.568,300.516,317.412
0.525,33.266,3.713,3.713,320.414,300.626,317.374
0.527,33.484,3.668,3.668,320.239,300.750,317.336
0.528,33.722,3.612,3.612,320.047,300.887,317.302
0.530,33.974,3.552,3.552,319.842,301.032,317.276
0.532,34.237,3.493,3.493,319.627,301.181,317.260
0.534,34.505,3.442,3.442,319.405,301.333,317.258
0.536,34.776,3.404,3.404,319.180,301.483,317.275
0.538,35.045,3.382,3.382,318.956,301.628,317.312
0.539,35.312,3.370,3.370,318.736,301.764,317.373
0.541,35.575,3.360,3.360,318.522,301.889,317.462
0.543,35.835,3.344,3.344,318.319,301.999,317.582
0.545,36.095,3.315,3.315,318.128,302.095,317.731
0.547,36.357,3.268,3.268,317.948,302.177,317.902
0.549,36.622,3.203,3.203,317.779,302.248,318.093
0.550,36.887,3.131,3.131,317.621,302.307,318.298
0.552,37.152,3.057,3.057,317.475,302.357,318.512
0.554,37.413,2.990,2.990,317.339,302.399,318.732
0.556,37.668,2.938,2.938,317.215,302.435,318.951
0.558,37.913,2.905,2.905,317.102,302.464,319.167
0.560,38.144,2.888,2.888,316.999,302.490,319.373
0.561,38.359,2.883,2.883,316.908,302.513,319.565
0.563,38.552,2.887,2.887,316.827,302.535,319.739
0.565,38.722,2.896,2.896,316.756,302.555,319.893
0.567,38.873,2.906,2.906,316.695,302.574,320.029
0.569,39.005,2.916,2.916,316.642,302.591,320.149
0.571,39.122,2.927,2.927,316.595,302.605,320.256
0.572,39.225,2.939,2.939,316.554,302.614,320.350
0.574,39.317,2.953,2.953,316.518,302.620,320.434
0.576,39.401,2.969,2.969,316.485,302.621,320.511
0.578,39.479,2.987,2.987,316.455,302.616,320.583
0.580,39.553,3.005,3.005,316.425,302.604,320.650
0.582,39.628,3.019,3.019,316.396,302.586,320.717
0.583,39.706,3.027,3.027,316.365,302.560,320.784
0.585,39.790,3.025,3.025,316.332,302.526,320.853
0.587,39.878,3.012,3.012,316.298,302.487,320.923
0.589,39.968,2.989,2.989,316.262,302.444,320.994
0.591,40.058,2.962,2.962,316.225,302.399,321.063
0.593,40.147,2.935,2.935,316.188,302.356,321.131
0.594,40.232,2.914,2.914,316.151,302.316,321.196
0.596,40.311,2.902,2.902,316.114,302.281,321.256
0.598,40.382,2.903,2.903,316.077,302.254,321.312
0.600,40.445,2.915,2.915,316.042,302.237,321.361
0.602,40.498,2.932,2.932,316.008,302.232,321.402
0.604,40.545,2.951,2.951,315.977,302.242,321.435
0.606,40.590,2.969,2.969,315.948,302.268,321.458
0.607,40.643,2.983,2.983,315.921,302.310,321.472
0.609,40.705,2.990,2.990,315.896,302.368,321.478
0.611,40.779,2.992,2.992,315.873,302.438,321.479
0.613,40.864,2.989,2.989,315.852,302.520,321.474
0.615,40.958,2.980,2.980,315.832,302.611,321.467
0.617,41.060,2.966,2.966,315.813,302.711,321.457
0.618,41.169,2.947,2.947,315.795,302.818,321.446
0.620,41.283,2.925,2.925,315.778,302.931,321.437
0.622,41.401,2.901,2.901,315.761,303.046,321.430
0.624,41.520,2.875,2.875,315.744,303.164,321.426
0.626,41.640,2.848,2.848,315.726,303.283,321.427
0.628,41.759,2.823,2.823,315.709,303.401,321.434
0.629,41.875,2.798,2.798,315.692,303.515,321.446
0.631,41.987,2.777,2.777,315.677,303.625,321.461
0.633,42.094,2.760,2.760,315.663,303.729,321.480
0.635,42.192,2.748,2.748,315.652,303.824,321.501
0.637,42.281,2.742,2.742,315.643,303.910,321.524
0.639,42.359,2.742,2.742,315.639,303.984,321.548
0.640,42.424,2.747,2.747,315.639,304.045,321.571
0.642,42.476,2.754,2.754,315.644,304.091,321.594
0.644,42.513,2.761,2.761,315.655,304.119,321.616
0.646,42.540,2.766,2.766,315.672,304.129,321.635
0.648,42.570,2.766,2.766,315.696,304.120,321.651
0.650,42.609,2.763,2.763,315.723,304.096,321.663
0.651,42.655,2.759,2.759,315.753,304.063,321.672
0.653,42.703,2.758,2.758,315.781,304.025,321.677
0.655,42.747,2.762,2.762,315.806,303.988,321.677
0.657,42.783,2.775,2.775,315.825,303.957,321.673
0.659,42.806,2.796,2.796,315.834,303.938,321.664
0.661,42.820,2.818,2.818,315.832,303.936,321.650
0.662,42.853,2.832,2.832,315.816,303.957,321.631
0.664,42.916,2.829,2.829,315.783,304.005,321.606
0.666,43.018,2.800,2.800,315.730,304.086,321.575
0.668,43.163,2.739,2.739,315.656,304.205,321.537
0.670,43.349,2.648,2.648,315.560,304.359,321.495
0.672,43.569,2.540,2.540,315.448,304.542,321.447
0.673,43.815,2.427,2.427,315.324,304.748,321.397
0.675,44.079,2.321,2.321,315.189,304.970,321.345
0.677,44.355,2.232,2.232,315.050,305.201,321.293
0.679,44.633,2.169,2.169,314.909,305.435,321.241
0.681,44.907,2.130,2.130,314.769,305.665,321.191
0.683,45.168,2.110,2.110,314.636,305.886,321.144
0.684,45.410,2.104,2.104,314.513,306.089,321.102
0.686,45.624,2.109,2.109,314.402,306.268,321.066
0.688,45.802,2.120,2.120,314.310,306.418,321.036
0.690,45.943,2.135,2.135,314.236,306.535,321.014
0.692,46.048,2.151,2.151,314.179,306.623,320.998
0.694,46.124,2.166,2.166,314.138,306.686,320.987
0.695,46.175,2.180,2.180,314.110,306.728,320.980
0.697,46.205,2.190,2.190,314.093,306.752,320.975
0.699,46.219,2.195,2.195,314.086,306.764,320.972
0.701,46.223,2.195,2.195,314.086,306.766,320.969
0.703,46.231,2.193,2.193,314.092,306.764,320.964
0.705,46.243,2.188,2.188,314.102,306.760,320.958
0.706,46.258,2.183,2.183,314.114,306.759,320.948
0.708,46.277,2.179,2.179,314.125,306.766,320.933
0.710,46.305,2.175,2.175,314.134,306.783,320.913
0.712,46.343,2.173,2.173,314.141,306.810,320.888
0.714,46.389,2.172,2.172,314.146,306.845,320.858
0.716,46.443,2.173,2.173,314.149,306.887,320.825
0.717,46.502,2.176,2.176,314.151,306.934,320.789
0.719,46.566,2.180,2.180,314.151,306.986,320.752
0.721,46.633,2.187,2.187,314.151,307.040,320.713
0.723,46.701,2.195,2.195,314.149,307.096,320.674
0.725,46.768,2.204,2.204,314.146,307.151,320.636
0.727,46.832,2.214,2.214,314.143,307.204,320.599
0.728,46.893,2.224,2.224,314.139,307.254,320.565
0.730,46.949,2.234,2.234,314.134,307.300,320.534
0.732,46.998,2.244,2.244,314.130,307.340,320.506
0.734,47.042,2.252,2.252,314.125,307.376,320.481
0.736,47.082,2.260,2.260,314.120,307.408,320.459
0.738,47.117,2.267,2.267,314.113,307.437,320.438
0.739,47.149,2.272,2.272,314.107,307.462,320.419
0.741,47.179,2.276,2.276,314.099,307.485,320.402
0.743,47.207,2.278,2.278,314.090,307.506,320.385
0.745,47.234,2.281,2.281,314.080,307.525,320.369
0.747,47.261,2.282,2.282,314.069,307.543,320.353
