"T","Distance","Radius","FreeRadius","X","Y","Z"
0.000,0.000,1.748,1.748,193.301,171.355,148.207
0.001,0.201,1.842,1.839,193.436,171.209,148.236
0.002,0.400,1.934,1.928,193.569,171.064,148.265
0.003,0.595,2.024,2.015,193.699,170.922,148.294
0.004,0.784,2.110,2.099,193.826,170.784,148.321
0.005,0.965,2.191,2.179,193.946,170.651,148.347
0.006,1.136,2.266,2.254,194.060,170.526,148.371
0.007,1.295,2.334,2.322,194.165,170.409,148.393
0.008,1.439,2.392,2.383,194.261,170.303,148.413
0.009,1.568,2.441,2.435,194.345,170.207,148.429
0.010,1.678,2.478,2.479,194.417,170.125,148.443
0.011,1.768,2.503,2.512,194.475,170.056,148.453
0.012,1.836,2.518,2.536,194.517,170.003,148.459
0.013,1.882,2.524,2.552,194.545,169.966,148.461
0.014,1.909,2.522,2.562,194.559,169.944,148.459
0.015,1.921,2.514,2.566,194.563,169.935,148.452
0.016,1.932,2.502,2.566,194.558,169.937,148.442
0.017,1.953,2.486,2.563,194.549,169.948,148.428
0.018,1.983,2.470,2.559,194.536,169.968,148.409
0.019,2.021,2.454,2.555,194.522,169.995,148.386
0.020,2.064,2.440,2.551,194.510,170.026,148.360
0.021,2.111,2.429,2.550,194.503,170.061,148.329
0.022,2.161,2.421,2.550,194.503,170.098,148.295
0.023,2.216,2.417,2.552,194.512,170.136,148.256
0.024,2.275,2.416,2.556,194.532,170.172,148.214
0.025,2.341,2.418,2.561,194.564,170.207,148.168
0.026,2.415,2.425,2.569,194.605,170.243,148.117
0.027,2.497,2.434,2.577,194.653,170.281,148.063
0.029,2.586,2.448,2.588,194.704,170.323,148.004
0.030,2.681,2.466,2.600,194.758,170.370,147.941
0.031,2.782,2.487,2.613,194.811,170.424,147.875
0.032,2.890,2.512,2.627,194.862,170.487,147.803
0.033,3.004,2.540,2.643,194.907,170.559,147.728
0.034,3.126,2.571,2.660,194.945,170.644,147.648
0.035,3.258,2.604,2.677,194.974,170.741,147.564
0.036,3.402,2.638,2.696,194.990,170.854,147.475
0.037,3.561,2.673,2.716,194.992,170.982,147.382
0.038,3.732,2.707,2.737,194.981,171.123,147.285
0.039,3.914,2.742,2.759,194.959,171.275,147.187
0.040,4.104,2.775,2.781,194.929,171.433,147.088
0.041,4.297,2.806,2.804,194.891,171.596,146.989
0.042,4.491,2.835,2.827,194.848,171.758,146.892
0.043,4.682,2.862,2.851,194.802,171.918,146.798
0.044,4.866,2.887,2.874,194.755,172.071,146.709
0.045,5.038,2.911,2.897,194.709,172.215,146.625
0.046,5.196,2.932,2.920,194.665,172.346,146.548
0.047,5.336,2.952,2.942,194.626,172.461,146.480
0.048,5.453,2.970,2.963,194.593,172.556,146.421
0.049,5.546,2.986,2.982,194.568,172.631,146.372
0.050,5.617,3.002,3.000,194.550,172.687,146.331
0.051,5.671,3.015,3.016,194.538,172.727,146.298
0.052,5.709,3.028,3.030,194.530,172.753,146.270
0.053,5.737,3.040,3.043,194.526,172.767,146.247
0.054,5.758,3.051,3.054,194.525,172.773,146.227
0.055,5.776,3.061,3.064,194.525,172.773,146.209
0.056,5.795,3.071,3.074,194.526,172.769,146.190
0.057,5.816,3.080,3.083,194.527,172.763,146.170
0.058,5.839,3.090,3.091,194.526,172.759,146.147
0.059,5.866,3.099,3.100,194.523,172.758,146.120
0.060,5.900,3.109,3.110,194.516,172.763,146.088
0.061,5.941,3.120,3.119,194.506,172.775,146.050
0.062,5.989,3.131,3.130,194.494,172.792,146.007
0.063,6.040,3.143,3.142,194.480,172.812,145.962
0.064,6.094,3.155,3.154,194.465,172.836,145.915
0.065,6.149,3.167,3.167,194.451,172.860,145.869
0.066,6.202,3.181,3.180,194.438,172.885,145.824
0.067,6.252,3.194,3.193,194.427,172.908,145.781
0.068,6.296,3.208,3.207,194.420,172.929,145.743
0.069,6.332,3.222,3.222,194.416,172.945,145.711
0.070,6.360,3.236,3.236,194.418,172.956,145.685
0.071,6.379,3.251,3.251,194.425,172.961,145.668
0.072,6.396,3.265,3.265,194.439,172.958,145.660
0.073,6.417,3.278,3.278,194.458,172.949,145.661
0.074,6.443,3.289,3.289,194.480,172.935,145.667
0.075,6.471,3.296,3.297,194.502,172.920,145.678
0.076,6.499,3.300,3.300,194.521,172.904,145.690
0.077,6.522,3.298,3.298,194.535,172.891,145.701
0.078,6.536,3.290,3.290,194.543,172.882,145.710
0.079,6.541,3.276,3.276,194.541,172.880,145.714
0.080,6.557,3.253,3.253,194.526,172.886,145.711
0.081,6.593,3.222,3.222,194.498,172.903,145.698
0.082,6.652,3.183,3.183,194.452,172.933,145.674
0.084,6.740,3.136,3.136,194.387,172.978,145.637
0.085,6.856,3.085,3.085,194.302,173.040,145.585
0.086,6.999,3.029,3.029,194.200,173.116,145.522
0.087,7.164,2.971,2.971,194.083,173.206,145.449
0.088,7.345,2.912,2.912,193.956,173.308,145.370
0.089,7.540,2.852,2.852,193.821,173.421,145.287
0.090,7.742,2.795,2.795,193.682,173.544,145.205
0.091,7.950,2.741,2.741,193.542,173.674,145.125
0.092,8.157,2.691,2.691,193.404,173.810,145.050
0.093,8.362,2.645,2.645,193.272,173.951,144.983
0.094,8.559,2.604,2.604,193.149,174.096,144.928
0.095,8.747,2.567,2.567,193.039,174.242,144.887
0.096,8.924,2.533,2.533,192.944,174.389,144.863
0.097,9.090,2.502,2.502,192.865,174.535,144.856
0.098,9.249,2.474,2.474,192.802,174.681,144.864
0.099,9.405,2.448,2.448,192.752,174.827,144.884
0.100,9.557,2.424,2.424,192.714,174.972,144.915
0.101,9.709,2.402,2.402,192.686,175.116,144.954
0.102,9.860,2.381,2.381,192.666,175.259,144.997
0.103,10.011,2.361,2.361,192.653,175.401,145.044
0.104,10.160,2.342,2.342,192.645,175.543,145.091
0.105,10.307,2.323,2.323,192.641,175.683,145.135
0.106,10.452,2.305,2.305,192.639,175.822,145.176
0.107,10.594,2.288,2.288,192.638,175.960,145.210
0.108,10.732,2.271,2.271,192.635,176.096,145.234
0.109,10.867,2.254,2.254,192.631,176.230,145.250
0.110,10.998,2.237,2.237,192.626,176.361,145.258
0.111,11.124,2.220,2.220,192.621,176.486,145.259
0.112,11.244,2.203,2.203,192.616,176.606,145.254
0.113,11.356,2.187,2.187,192.611,176.718,145.244
0.114,11.461,2.171,2.171,192.607,176.822,145.231
0.115,11.556,2.156,2.156,192.605,176.916,145.215
0.116,11.641,2.143,2.143,192.604,176.998,145.197
0.117,11.714,2.132,2.132,192.606,177.069,145.179
0.118,11.773,2.123,2.123,192.611,177.126,145.161
0.119,11.819,2.118,2.118,192.619,177.168,145.144
0.120,11.852,2.116,2.116,192.630,177.195,145.130
0.121,11.874,2.118,2.118,192.643,177.209,145.119
0.122,11.891,2.125,2.125,192.656,177.212,145.109
0.123,11.905,2.135,2.135,192.669,177.206,145.103
0.124,11.920,2.147,2.147,192.678,177.196,145.098
0.125,11.935,2.159,2.159,192.683,177.182,145.096
0.126,11.950,2.170,2.170,192.682,177.167,145.097
0.127,11.966,2.179,2.179,192.674,177.154,145.100
0.128,11.986,2.185,2.185,192.657,177.146,145.106
0.129,12.015,2.186,2.186,192.629,177.144,145.114
0.130,12.057,2.180,2.180,192.589,177.152,145.124
0.131,12.115,2.167,2.167,192.535,177.171,145.138
0.132,12.192,2.146,2.146,192.468,177.204,145.154
0.133,12.283,2.117,2.117,192.391,177.250,145.173
0.134,12.389,2.083,2.083,192.307,177.309,145.197
0.135,12.506,2.044,2.044,192.219,177.380,145.226
0.136,12.633,2.003,2.003,192.130,177.465,145.261
0.137,12.770,1.960,1.960,192.044,177.561,145.302
0.138,12.914,1.918,1.918,191.963,177.670,145.351
0.140,13.066,1.878,1.878,191.890,177.792,145.408
0.141,13.227,1.842,1.842,191.830,177.925,145.474
0.142,13.397,1.810,1.810,191.784,178.071,145.550
0.143,13.578,1.785,1.785,191.757,178.228,145.636
0.144,13.773,1.765,1.765,191.750,178.396,145.733
0.145,13.981,1.752,1.752,191.764,178.575,145.840
0.146,14.201,1.745,1.745,191.794,178.760,145.955
0.147,14.431,1.744,1.744,191.837,178.949,146.076
0.148,14.666,1.748,1.748,191.891,179.141,146.202
0.149,14.903,1.758,1.758,191.952,179.331,146.331
0.150,15.140,1.773,1.773,192.017,179.518,146.460
0.151,15.370,1.794,1.794,192.082,179.698,146.587
0.152,15.591,1.820,1.820,192.146,179.869,146.712
0.153,15.799,1.850,1.850,192.203,180.029,146.832
0.154,15.990,1.884,1.884,192.252,180.175,146.945
0.155,16.159,1.921,1.921,192.289,180.303,147.049
0.156,16.305,1.958,1.958,192.311,180.413,147.143
0.157,16.429,1.996,1.996,192.320,180.504,147.226
0.158,16.534,2.032,2.032,192.318,180.578,147.300
0.159,16.621,2.066,2.066,192.306,180.636,147.364
0.160,16.694,2.096,2.096,192.286,180.680,147.420
0.161,16.755,2.121,2.121,192.260,180.709,147.466
0.162,16.806,2.140,2.140,192.231,180.726,147.504
0.163,16.850,2.153,2.153,192.199,180.732,147.534
0.164,16.890,2.160,2.160,192.166,180.728,147.556
0.165,16.926,2.162,2.162,192.135,180.715,147.571
0.166,16.962,2.160,2.160,192.108,180.695,147.579
0.167,16.997,2.154,2.154,192.085,180.667,147.580
0.168,17.034,2.147,2.147,192.068,180.635,147.575
0.169,17.071,2.138,2.138,192.057,180.601,147.567
0.170,17.107,2.129,2.129,192.050,180.568,147.556
0.171,17.139,2.119,2.119,192.047,180.538,147.544
0.172,17.165,2.112,2.112,192.048,180.514,147.533
0.173,17.183,2.106,2.106,192.052,180.499,147.524
0.174,17.190,2.102,2.102,192.057,180.496,147.520
0.175,17.204,2.100,2.100,192.064,180.507,147.522
0.176,17.234,2.100,2.100,192.072,180.535,147.532
0.177,17.287,2.103,2.103,192.079,180.583,147.551
0.178,17.364,2.108,2.108,192.086,180.654,147.580
0.179,17.469,2.116,2.116,192.092,180.750,147.623
0.180,17.600,2.126,2.126,192.096,180.870,147.677
0.181,17.753,2.139,2.139,192.099,181.009,147.741
0.182,17.923,2.155,2.155,192.102,181.163,147.813
0.183,18.105,2.174,2.174,192.103,181.328,147.889
0.184,18.295,2.195,2.195,192.105,181.500,147.969
0.185,18.487,2.217,2.217,192.107,181.674,148.049
0.186,18.677,2.240,2.240,192.109,181.847,148.128
0.187,18.860,2.262,2.262,192.112,182.014,148.204
0.188,19.032,2.284,2.284,192.115,182.171,148.273
0.189,19.187,2.305,2.305,192.120,182.313,148.334
0.190,19.321,2.323,2.323,192.126,182.437,148.385
0.191,19.430,2.339,2.339,192.134,182.539,148.424
0.192,19.516,2.351,2.351,192.144,182.619,148.452
0.193,19.580,2.359,2.359,192.154,182.680,148.469
0.195,19.624,2.365,2.365,192.164,182.723,148.477
0.196,19.653,2.367,2.367,192.173,182.750,148.476
0.197,19.670,2.366,2.366,192.181,182.763,148.469
0.198,19.684,2.363,2.363,192.188,182.762,148.456
0.199,19.705,2.357,2.357,192.192,182.752,148.439
0.200,19.734,2.350,2.350,192.193,182.732,148.418
0.201,19.770,2.340,2.340,192.191,182.705,148.394
0.202,19.812,2.330,2.330,192.185,182.672,148.369
0.203,19.857,2.318,2.318,192.173,182.635,148.345
0.204,19.905,2.305,2.305,192.157,182.597,148.321
0.205,19.951,2.291,2.291,192.136,182.562,148.300
0.206,19.994,2.276,2.276,192.112,182.532,148.282
0.207,20.031,2.259,2.259,192.083,182.512,148.268
0.208,20.064,2.241,2.241,192.052,182.506,148.260
0.209,20.100,2.221,2.221,192.018,182.516,148.258
0.210,20.148,2.199,2.199,191.982,182.548,148.264
0.211,20.217,2.176,2.176,191.944,182.604,148.278
0.212,20.313,2.150,2.150,191.906,182.688,148.303
0.213,20.441,2.123,2.123,191.867,182.805,148.338
0.214,20.606,2.094,2.094,191.828,182.958,148.385
0.215,20.810,2.065,2.065,191.789,183.150,148.445
0.216,21.053,2.039,2.039,191.752,183.378,148.517
0.217,21.327,2.015,2.015,191.715,183.637,148.598
0.218,21.624,1.995,1.995,191.679,183.918,148.687
0.219,21.937,1.981,1.981,191.645,184.215,148.781
0.220,22.259,1.974,1.974,191.613,184.520,148.877
0.221,22.581,1.976,1.976,191.582,184.826,148.973
0.222,22.897,1.988,1.988,191.553,185.126,149.066
0.223,23.198,2.010,2.010,191.526,185.413,149.155
0.224,23.477,2.043,2.043,191.502,185.679,149.236
0.225,23.727,2.083,2.083,191.480,185.918,149.308
0.226,23.940,2.128,2.128,191.460,186.121,149.367
0.227,24.109,2.178,2.178,191.443,186.283,149.412
0.228,24.237,2.228,2.228,191.429,186.407,149.444
0.229,24.329,2.278,2.278,191.417,186.496,149.463
0.230,24.390,2.325,2.325,191.407,186.555,149.472
0.231,24.425,2.367,2.367,191.399,186.589,149.472
0.232,24.442,2.402,2.402,191.391,186.602,149.464
0.233,24.458,2.428,2.428,191.385,186.599,149.450
0.234,24.482,2.446,2.446,191.378,186.584,149.431
0.235,24.514,2.456,2.456,191.372,186.562,149.409
0.236,24.549,2.460,2.460,191.366,186.537,149.385
0.237,24.582,2.459,2.459,191.359,186.515,149.361
0.238,24.611,2.455,2.455,191.351,186.499,149.339
0.239,24.634,2.447,2.447,191.342,186.493,149.318
0.240,24.655,2.439,2.439,191.332,186.496,149.300
0.241,24.678,2.430,2.430,191.321,186.507,149.284
0.242,24.705,2.423,2.423,191.309,186.526,149.269
0.243,24.737,2.417,2.417,191.296,186.552,149.255
0.244,24.775,2.414,2.414,191.282,186.584,149.242
0.245,24.817,2.412,2.412,191.267,186.622,149.230
0.246,24.863,2.412,2.412,191.251,186.663,149.218
0.247,24.913,2.414,2.414,191.235,186.709,149.206
0.248,24.965,2.418,2.418,191.218,186.757,149.193
0.249,25.020,2.422,2.422,191.201,186.807,149.180
0.251,25.077,2.428,2.428,191.182,186.859,149.165
0.252,25.134,2.435,2.435,191.164,186.911,149.150
0.253,25.191,2.442,2.442,191.146,186.963,149.133
0.254,25.248,2.450,2.450,191.129,187.014,149.116
0.255,25.305,2.459,2.459,191.113,187.065,149.097
0.256,25.359,2.468,2.468,191.100,187.114,149.078
0.257,25.411,2.477,2.477,191.088,187.161,149.057
0.258,25.461,2.487,2.487,191.080,187.205,149.036
0.259,25.508,2.498,2.498,191.075,187.246,149.015
0.260,25.552,2.508,2.508,191.075,187.284,148.993
0.261,25.592,2.519,2.519,191.079,187.318,148.970
0.262,25.630,2.530,2.530,191.089,187.346,148.947
0.263,25.667,2.541,2.541,191.104,187.370,148.924
0.264,25.704,2.553,2.553,191.124,187.390,148.901
0.265,25.742,2.564,2.564,191.150,187.408,148.879
0.266,25.782,2.574,2.574,191.179,187.426,148.859
0.267,25.824,2.583,2.583,191.213,187.445,148.842
0.268,25.868,2.591,2.591,191.249,187.467,148.829
0.269,25.916,2.598,2.598,191.287,187.494,148.821
0.270,25.969,2.602,2.602,191.328,187.528,148.818
0.271,26.028,2.604,2.604,191.370,187.570,148.822
0.272,26.096,2.603,2.603,191.412,187.623,148.833
0.273,26.176,2.599,2.599,191.455,187.687,148.852
0.274,26.269,2.591,2.591,191.497,187.765,148.879
0.275,26.376,2.581,2.581,191.538,187.858,148.916
0.276,26.498,2.568,2.568,191.578,187.965,148.958
0.277,26.633,2.554,2.554,191.618,188.085,149.003
0.278,26.778,2.537,2.537,191.657,188.218,149.045
0.279,26.932,2.519,2.519,191.697,188.363,149.082
0.280,27.096,2.501,2.501,191.738,188.519,149.109
0.281,27.267,2.482,2.482,191.779,188.685,149.124
0.282,27.447,2.463,2.463,191.821,188.860,149.122
0.283,27.638,2.445,2.445,191.864,189.044,149.100
0.284,27.840,2.427,2.427,191.909,189.235,149.053
0.285,28.057,2.411,2.411,191.956,189.433,148.979
0.286,28.292,2.396,2.396,192.005,189.638,148.873
0.287,28.546,2.384,2.384,192.056,189.846,148.737
0.288,28.818,2.375,2.375,192.108,190.057,148.574
0.289,29.101,2.369,2.369,192.161,190.268,148.391
0.290,29.393,2.367,2.367,192.213,190.476,148.193
0.291,29.688,2.369,2.369,192.265,190.678,147.985
0.292,29.981,2.376,2.376,192.315,190.873,147.773
0.293,30.265,2.388,2.388,192.362,191.059,147.562
0.294,30.536,2.405,2.405,192.406,191.231,147.358
0.295,30.789,2.427,2.427,192.446,191.389,147.166
0.296,31.016,2.451,2.451,192.482,191.530,146.991
0.297,31.213,2.478,2.478,192.511,191.652,146.838
0.298,31.374,2.505,2.505,192.535,191.751,146.714
0.299,31.500,2.533,2.533,192.553,191.830,146.617
0.300,31.594,2.559,2.559,192.565,191.888,146.545
0.301,31.658,2.584,2.584,192.573,191.928,146.495
0.302,31.697,2.604,2.604,192.577,191.952,146.465
0.303,31.712,2.621,2.621,192.577,191.962,146.453
0.304,31.717,2.633,2.633,192.575,191.958,146.455
0.305,31.738,2.640,2.640,192.570,191.942,146.469
0.307,31.773,2.644,2.644,192.565,191.917,146.492
0.308,31.818,2.645,2.645,192.558,191.884,146.522
0.309,31.871,2.642,2.642,192.552,191.844,146.556
0.310,31.928,2.637,2.637,192.546,191.799,146.591
0.311,31.987,2.630,2.630,192.542,191.752,146.626
0.312,32.044,2.621,2.621,192.540,191.705,146.657
0.313,32.096,2.611,2.611,192.542,191.660,146.685
0.314,32.140,2.600,2.600,192.548,191.622,146.707
0.315,32.175,2.589,2.589,192.561,191.594,146.721
0.316,32.200,2.579,2.579,192.580,191.578,146.727
0.317,32.229,2.570,2.570,192.608,191.578,146.722
0.318,32.273,2.564,2.564,192.645,191.596,146.705
0.319,32.343,2.561,2.561,192.693,191.637,146.675
0.320,32.443,2.561,2.561,192.753,191.703,146.630
0.321,32.577,2.566,2.566,192.825,191.797,146.568
0.322,32.749,2.576,2.576,192.912,191.922,146.488
0.323,32.959,2.593,2.593,193.012,192.079,146.390
0.324,33.200,2.616,2.616,193.123,192.261,146.278
0.325,33.467,2.646,2.646,193.241,192.465,146.153
0.326,33.751,2.681,2.682,193.365,192.684,146.020
0.327,34.047,2.721,2.721,193.490,192.914,145.882
0.328,34.347,2.763,2.763,193.613,193.148,145.741
0.329,34.645,2.806,2.806,193.732,193.383,145.601
0.330,34.934,2.849,2.849,193.844,193.612,145.464
0.331,35.207,2.892,2.892,193.946,193.830,145.335
0.332,35.458,2.932,2.932,194.034,194.032,145.216
0.333,35.679,2.969,2.969,194.105,194.212,145.110
0.334,35.865,3.001,3.001,194.157,194.366,145.020
0.335,36.016,3.028,3.028,194.190,194.494,144.947
0.336,36.136,3.051,3.051,194.207,194.598,144.888
0.337,36.231,3.070,3.070,194.209,194.681,144.842
0.338,36.305,3.086,3.086,194.198,194.745,144.807
0.339,36.364,3.100,3.100,194.177,194.794,144.781
0.340,36.414,3.112,3.112,194.148,194.830,144.764
0.341,36.459,3.123,3.123,194.113,194.857,144.752
0.342,36.503,3.133,3.133,194.074,194.876,144.745
0.343,36.546,3.143,3.143,194.034,194.890,144.741
0.344,36.587,3.154,3.154,193.995,194.903,144.737
0.345,36.627,3.166,3.166,193.958,194.917,144.733
0.346,36.664,3.178,3.178,193.926,194.934,144.727
0.347,36.699,3.190,3.191,193.898,194.955,144.718
0.348,36.735,3.203,3.203,193.874,194.980,144.708
0.349,36.772,3.216,3.216,193.852,195.006,144.696
0.350,36.810,3.229,3.229,193.832,195.036,144.682
0.351,36.849,3.241,3.242,193.813,195.067,144.667
0.352,36.891,3.254,3.254,193.794,195.100,144.651
0.353,36.934,3.266,3.266,193.773,195.134,144.634
0.354,36.978,3.277,3.277,193.751,195.168,144.617
0.355,37.025,3.288,3.287,193.726,195.203,144.599
0.356,37.074,3.298,3.297,193.697,195.238,144.580
0.357,37.125,3.306,3.305,193.664,195.273,144.562
0.358,37.179,3.314,3.312,193.626,195.307,144.545
0.359,37.234,3.319,3.318,193.585,195.339,144.528
0.360,37.289,3.324,3.322,193.541,195.369,144.512
0.362,37.344,3.326,3.325,193.496,195.396,144.498
0.363,37.396,3.326,3.326,193.452,195.421,144.487
0.364,37.444,3.325,3.324,193.409,195.441,144.478
0.365,37.488,3.320,3.321,193.368,195.457,144.472
0.366,37.526,3.314,3.316,193.331,195.467,144.470
0.367,37.558,3.306,3.310,193.300,195.472,144.473
0.368,37.584,3.297,3.302,193.275,195.471,144.480
0.369,37.607,3.287,3.293,193.257,195.463,144.492
0.370,37.632,3.276,3.283,193.249,195.447,144.510
0.371,37.663,3.266,3.272,193.248,195.426,144.532
0.372,37.698,3.255,3.261,193.252,195.401,144.556
0.373,37.733,3.246,3.249,193.258,195.376,144.579
0.374,37.763,3.237,3.237,193.263,195.353,144.599
0.375,37.786,3.230,3.226,193.266,195.336,144.613
0.376,37.798,3.225,3.216,193.262,195.326,144.620
0.377,37.811,3.223,3.209,193.250,195.328,144.615
0.378,37.844,3.223,3.205,193.227,195.343,144.598
0.379,37.904,3.227,3.205,193.189,195.375,144.565
0.380,37.995,3.235,3.211,193.134,195.427,144.514
0.381,38.122,3.246,3.224,193.059,195.501,144.442
0.382,38.288,3.263,3.245,192.963,195.599,144.347
0.383,38.489,3.285,3.274,192.848,195.718,144.234
0.384,38.716,3.313,3.314,192.719,195.854,144.106
0.385,38.962,3.347,3.364,192.580,196.003,143.969
0.386,39.219,3.385,3.422,192.435,196.161,143.826
0.387,39.480,3.427,3.486,192.289,196.322,143.683
0.388,39.736,3.470,3.552,192.146,196.483,143.544
0.389,39.980,3.514,3.619,192.010,196.639,143.415
0.390,40.205,3.557,3.683,191.886,196.786,143.299
0.391,40.402,3.598,3.743,191.778,196.919,143.201
0.392,40.565,3.635,3.795,191.691,197.034,143.127
0.393,40.686,3.667,3.836,191.629,197.127,143.080
0.394,40.765,3.692,3.865,191.592,197.196,143.062
0.395,40.813,3.710,3.879,191.578,197.241,143.068
0.396,40.847,3.721,3.881,191.579,197.266,143.090
0.397,40.883,3.727,3.873,191.591,197.274,143.123
0.398,40.923,3.727,3.857,191.607,197.266,143.159
0.399,40.965,3.724,3.836,191.623,197.246,143.192
0.400,41.005,3.718,3.812,191.633,197.215,143.215
0.401,41.044,3.710,3.788,191.631,197.176,143.222
0.402,41.095,3.701,3.766,191.612,197.133,143.206
0.403,41.172,3.692,3.748,191.571,197.086,143.160
0.404,41.290,3.683,3.737,191.500,197.040,143.078
0.405,41.458,3.676,3.733,191.397,196.995,142.953
0.406,41.677,3.670,3.737,191.260,196.954,142.787
0.407,41.939,3.667,3.746,191.096,196.916,142.586
0.408,42.234,3.665,3.760,190.912,196.880,142.359
0.409,42.551,3.665,3.777,190.713,196.848,142.113
0.410,42.882,3.668,3.796,190.507,196.818,141.857
0.411,43.216,3.672,3.815,190.299,196.790,141.597
0.412,43.543,3.679,3.833,190.095,196.765,141.342
0.413,43.853,3.689,3.849,189.903,196.741,141.100
0.414,44.137,3.701,3.861,189.727,196.720,140.878
0.415,44.383,3.716,3.870,189.576,196.700,140.685
