"T","Distance","Radius","FreeRadius","X","Y","Z"
0.000,0.000,1.748,1.748,193.301,171.355,148.207
0.001,0.201,1.833,1.830,193.422,171.198,148.239
0.002,0.401,1.916,1.911,193.543,171.042,148.271
0.004,0.596,1.997,1.989,193.661,170.890,148.301
0.005,0.784,2.074,2.065,193.777,170.745,148.330
0.006,0.964,2.146,2.136,193.890,170.606,148.358
0.007,1.134,2.211,2.202,193.998,170.478,148.383
0.008,1.291,2.269,2.262,194.100,170.361,148.405
0.009,1.434,2.317,2.314,194.197,170.258,148.424
0.011,1.560,2.356,2.358,194.287,170.170,148.439
0.012,1.669,2.383,2.393,194.368,170.099,148.450
0.013,1.758,2.402,2.421,194.441,170.048,148.456
0.014,1.828,2.413,2.442,194.504,170.018,148.458
0.015,1.882,2.419,2.457,194.557,170.011,148.453
0.016,1.927,2.421,2.468,194.600,170.022,148.444
0.018,1.970,2.420,2.475,194.632,170.048,148.430
0.019,2.015,2.418,2.480,194.655,170.082,148.413
0.020,2.062,2.417,2.483,194.668,170.122,148.394
0.021,2.107,2.418,2.485,194.673,170.163,148.372
0.022,2.150,2.421,2.486,194.668,170.199,148.349
0.023,2.189,2.424,2.485,194.655,170.226,148.326
0.025,2.223,2.426,2.481,194.633,170.240,148.303
0.026,2.261,2.426,2.472,194.603,170.235,148.280
0.027,2.311,2.423,2.459,194.566,170.208,148.260
0.028,2.384,2.414,2.439,194.521,170.153,148.242
0.029,2.485,2.400,2.411,194.469,170.068,148.227
0.030,2.611,2.377,2.376,194.412,169.956,148.214
0.032,2.758,2.347,2.332,194.351,169.823,148.205
0.033,2.920,2.310,2.282,194.289,169.673,148.198
0.034,3.092,2.268,2.229,194.228,169.513,148.194
0.035,3.267,2.223,2.177,194.169,169.348,148.191
0.036,3.440,2.177,2.129,194.116,169.184,148.191
0.037,3.605,2.132,2.087,194.069,169.025,148.192
0.039,3.757,2.089,2.055,194.030,168.878,148.195
0.040,3.890,2.050,2.036,194.003,168.748,148.199
0.041,3.999,2.018,2.034,193.988,168.640,148.204
0.042,4.079,1.991,2.046,193.987,168.561,148.209
0.043,4.129,1.970,2.070,194.003,168.513,148.216
0.044,4.164,1.954,2.100,194.031,168.494,148.223
0.046,4.202,1.940,2.133,194.068,168.498,148.231
0.047,4.248,1.929,2.163,194.108,168.518,148.240
0.048,4.298,1.919,2.188,194.148,168.548,148.250
0.049,4.348,1.908,2.201,194.182,168.583,148.262
0.050,4.391,1.896,2.199,194.206,168.616,148.275
0.052,4.422,1.882,2.178,194.215,168.641,148.290
0.053,4.445,1.867,2.141,194.206,168.653,148.307
0.054,4.484,1.850,2.092,194.173,168.646,148.326
0.055,4.556,1.833,2.034,194.112,168.612,148.347
0.056,4.673,1.816,1.972,194.018,168.547,148.370
0.057,4.839,1.801,1.910,193.889,168.446,148.396
0.059,5.052,1.789,1.853,193.727,168.311,148.424
0.060,5.303,1.779,1.803,193.539,168.147,148.454
0.061,5.586,1.773,1.767,193.330,167.960,148.486
0.062,5.891,1.772,1.745,193.107,167.755,148.520
0.063,6.211,1.774,1.736,192.874,167.536,148.556
0.064,6.539,1.779,1.738,192.640,167.310,148.594
0.066,6.867,1.788,1.749,192.408,167.081,148.632
0.067,7.187,1.798,1.766,192.186,166.855,148.672
0.068,7.490,1.810,1.787,191.979,166.637,148.713
0.069,7.771,1.823,1.811,191.793,166.432,148.754
0.070,8.020,1.837,1.834,191.633,166.244,148.797
0.071,8.233,1.851,1.855,191.506,166.080,148.839
0.073,8.409,1.864,1.873,191.410,165.938,148.881
0.074,8.554,1.878,1.888,191.340,165.818,148.921
0.075,8.670,1.890,1.901,191.294,165.717,148.957
0.076,8.761,1.903,1.912,191.267,165.636,148.988
0.077,8.830,1.914,1.922,191.257,165.572,149.013
0.078,8.881,1.925,1.930,191.259,165.524,149.031
0.080,8.917,1.934,1.937,191.269,165.491,149.040
0.081,8.943,1.943,1.943,191.285,165.471,149.038
0.082,8.966,1.950,1.949,191.303,165.463,149.025
0.083,8.996,1.957,1.954,191.318,165.466,148.999
0.084,9.040,1.963,1.960,191.327,165.478,148.958
0.085,9.099,1.969,1.967,191.328,165.498,148.902
0.087,9.175,1.976,1.973,191.319,165.524,148.832
0.088,9.264,1.983,1.981,191.303,165.555,148.749
0.089,9.366,1.991,1.990,191.280,165.590,148.657
0.090,9.476,2.001,2.000,191.251,165.627,148.557
0.091,9.593,2.012,2.012,191.219,165.664,148.451
0.093,9.713,2.026,2.026,191.183,165.701,148.342
0.094,9.835,2.040,2.041,191.146,165.735,148.232
0.095,9.954,2.056,2.057,191.109,165.765,148.122
0.096,10.070,2.072,2.073,191.072,165.790,148.015
0.097,10.179,2.088,2.089,191.037,165.808,147.913
0.098,10.280,2.103,2.104,191.005,165.818,147.818
0.100,10.370,2.117,2.118,190.978,165.819,147.733
0.101,10.449,2.130,2.130,190.955,165.811,147.657
0.102,10.519,2.140,2.140,190.937,165.796,147.591
0.103,10.579,2.149,2.148,190.923,165.776,147.536
0.104,10.631,2.156,2.156,190.914,165.753,147.490
0.105,10.674,2.162,2.162,190.909,165.729,147.456
0.107,10.708,2.167,2.167,190.908,165.705,147.431
0.108,10.734,2.173,2.173,190.911,165.683,147.417
0.109,10.754,2.179,2.179,190.919,165.665,147.414
0.110,10.773,2.186,2.186,190.930,165.652,147.422
0.111,10.797,2.195,2.195,190.945,165.648,147.441
0.112,10.833,2.205,2.205,190.964,165.652,147.472
0.114,10.883,2.215,2.215,190.986,165.667,147.513
0.115,10.943,2.225,2.225,191.011,165.691,147.562
0.116,11.008,2.232,2.232,191.036,165.719,147.615
0.117,11.072,2.236,2.236,191.060,165.750,147.666
0.118,11.130,2.235,2.235,191.081,165.779,147.712
0.119,11.176,2.228,2.228,191.097,165.803,147.748
0.121,11.204,2.213,2.213,191.106,165.818,147.769
0.122,11.208,2.190,2.190,191.107,165.821,147.771
0.123,11.234,2.160,2.160,191.097,165.809,147.750
0.124,11.297,2.127,2.127,191.076,165.777,147.700
0.125,11.402,2.096,2.096,191.040,165.723,147.618
0.126,11.554,2.072,2.072,190.989,165.643,147.498
0.128,11.760,2.059,2.059,190.920,165.534,147.338
0.129,12.014,2.062,2.062,190.836,165.398,147.141
0.130,12.308,2.086,2.086,190.739,165.238,146.914
0.131,12.633,2.134,2.134,190.632,165.058,146.665
0.132,12.981,2.211,2.211,190.519,164.864,146.400
0.133,13.342,2.312,2.312,190.401,164.658,146.128
0.135,13.708,2.430,2.430,190.282,164.444,145.856
0.136,14.070,2.557,2.557,190.166,164.227,145.591
0.137,14.419,2.686,2.686,190.054,164.010,145.340
0.138,14.748,2.811,2.811,189.951,163.797,145.111
0.139,15.048,2.923,2.923,189.858,163.593,144.912
0.141,15.311,3.015,3.015,189.780,163.402,144.749
0.142,15.532,3.080,3.080,189.718,163.226,144.630
0.143,15.714,3.115,3.115,189.672,163.068,144.554
0.144,15.866,3.124,3.124,189.640,162.925,144.514
0.145,15.996,3.112,3.112,189.621,162.796,144.507
0.146,16.113,3.084,3.083,189.613,162.682,144.527
0.148,16.223,3.045,3.045,189.613,162.579,144.568
0.149,16.331,3.000,3.000,189.620,162.489,144.627
0.150,16.438,2.955,2.955,189.632,162.409,144.697
0.151,16.543,2.914,2.914,189.646,162.338,144.773
0.152,16.643,2.883,2.883,189.661,162.276,144.850
0.153,16.736,2.863,2.863,189.676,162.221,144.924
0.155,16.818,2.852,2.852,189.687,162.173,144.988
0.156,16.884,2.849,2.849,189.694,162.130,145.039
0.157,16.937,2.852,2.852,189.696,162.092,145.075
0.158,16.978,2.859,2.859,189.694,162.058,145.098
0.159,17.011,2.869,2.869,189.688,162.028,145.111
0.160,17.038,2.881,2.881,189.679,162.002,145.115
0.162,17.063,2.891,2.891,189.669,161.980,145.113
0.163,17.087,2.901,2.901,189.656,161.961,145.106
0.164,17.110,2.908,2.908,189.644,161.944,145.097
0.165,17.132,2.914,2.914,189.631,161.930,145.087
0.166,17.151,2.918,2.918,189.619,161.918,145.078
0.167,17.166,2.920,2.920,189.608,161.908,145.072
0.169,17.178,2.922,2.922,189.600,161.900,145.072
0.170,17.190,2.923,2.923,189.595,161.892,145.079
0.171,17.206,2.923,2.923,189.592,161.885,145.093
0.172,17.227,2.922,2.922,189.592,161.877,145.113
0.173,17.253,2.921,2.921,189.594,161.867,145.138
0.174,17.284,2.919,2.919,189.598,161.855,145.165
0.176,17.317,2.915,2.915,189.603,161.838,145.194
0.177,17.354,2.911,2.911,189.610,161.817,145.223
0.178,17.394,2.904,2.904,189.617,161.789,145.251
0.179,17.438,2.895,2.895,189.624,161.755,145.277
0.180,17.486,2.883,2.883,189.631,161.712,145.299
0.181,17.541,2.869,2.869,189.638,161.660,145.316
0.183,17.604,2.852,2.852,189.644,161.598,145.326
0.184,17.678,2.832,2.832,189.648,161.525,145.329
0.185,17.762,2.809,2.809,189.652,161.441,145.323
0.186,17.854,2.785,2.785,189.653,161.349,145.311
0.187,17.954,2.759,2.759,189.654,161.252,145.293
0.189,18.058,2.733,2.733,189.652,161.150,145.270
0.190,18.164,2.705,2.705,189.649,161.048,145.242
0.191,18.271,2.678,2.678,189.645,160.945,145.211
0.192,18.376,2.652,2.652,189.638,160.846,145.177
0.193,18.477,2.626,2.626,189.630,160.752,145.141
0.194,18.572,2.602,2.602,189.619,160.665,145.104
0.196,18.659,2.580,2.580,189.607,160.587,145.067
0.197,18.736,2.561,2.561,189.593,160.521,145.031
0.198,18.801,2.545,2.545,189.577,160.469,144.996
0.199,18.854,2.532,2.532,189.559,160.430,144.964
0.200,18.898,2.524,2.524,189.541,160.403,144.935
0.201,18.933,2.521,2.521,189.525,160.383,144.910
0.203,18.959,2.523,2.523,189.512,160.371,144.891
0.204,18.977,2.529,2.529,189.503,160.362,144.878
0.205,18.987,2.539,2.539,189.499,160.355,144.873
0.206,18.995,2.549,2.549,189.503,160.348,144.876
0.207,19.014,2.559,2.559,189.514,160.338,144.888
0.208,19.049,2.565,2.565,189.536,160.323,144.910
0.210,19.100,2.567,2.567,189.568,160.301,144.943
0.211,19.172,2.562,2.562,189.613,160.269,144.989
0.212,19.265,2.548,2.548,189.671,160.225,145.047
0.213,19.380,2.524,2.524,189.742,160.170,145.118
0.214,19.511,2.491,2.491,189.824,160.104,145.198
0.215,19.656,2.450,2.450,189.914,160.031,145.284
0.217,19.809,2.405,2.405,190.010,159.952,145.374
0.218,19.967,2.356,2.356,190.108,159.868,145.465
0.219,20.127,2.305,2.305,190.208,159.782,145.555
0.220,20.283,2.255,2.255,190.305,159.696,145.640
0.221,20.431,2.208,2.208,190.399,159.611,145.719
0.222,20.569,2.165,2.165,190.486,159.530,145.787
0.224,20.692,2.128,2.128,190.565,159.454,145.844
0.225,20.796,2.096,2.096,190.631,159.385,145.885
0.226,20.880,2.070,2.070,190.685,159.325,145.909
0.227,20.944,2.050,2.050,190.723,159.274,145.916
0.228,20.995,2.035,2.035,190.749,159.230,145.909
0.230,21.039,2.026,2.026,190.762,159.192,145.893
0.231,21.080,2.021,2.021,190.764,159.157,145.871
0.232,21.123,2.021,2.021,190.756,159.123,145.847
0.233,21.167,2.026,2.026,190.739,159.089,145.824
0.234,21.215,2.035,2.035,190.714,159.053,145.805
0.235,21.267,2.045,2.045,190.682,159.013,145.796
0.237,21.327,2.054,2.054,190.644,158.967,145.798
0.238,21.398,2.060,2.060,190.601,158.914,145.817
0.239,21.485,2.060,2.060,190.554,158.850,145.855
0.240,21.594,2.054,2.054,190.504,158.776,145.916
0.241,21.725,2.037,2.037,190.453,158.689,146.000
0.242,21.878,2.010,2.010,190.402,158.589,146.104
0.244,22.049,1.969,1.969,190.353,158.477,146.224
0.245,22.237,1.919,1.919,190.308,158.352,146.356
0.246,22.439,1.863,1.863,190.267,158.214,146.498
0.247,22.653,1.807,1.807,190.234,158.063,146.646
0.248,22.876,1.754,1.754,190.208,157.899,146.795
0.249,23.108,1.709,1.709,190.193,157.721,146.944
0.251,23.347,1.677,1.677,190.189,157.531,147.088
0.252,23.592,1.661,1.661,190.199,157.326,147.223
0.253,23.844,1.666,1.666,190.223,157.108,147.347
0.254,24.103,1.694,1.694,190.264,156.877,147.456
0.255,24.370,1.742,1.742,190.321,156.633,147.548
0.256,24.642,1.805,1.805,190.390,156.382,147.626
0.258,24.917,1.882,1.882,190.469,156.127,147.691
0.259,25.191,1.968,1.968,190.555,155.872,147.745
0.260,25.461,2.061,2.061,190.644,155.622,147.790
0.261,25.721,2.156,2.156,190.734,155.380,147.826
0.262,25.969,2.251,2.251,190.822,155.150,147.856
0.263,26.199,2.343,2.343,190.904,154.936,147.881
0.265,26.407,2.429,2.429,190.977,154.743,147.903
0.266,26.588,2.510,2.510,191.039,154.575,147.924
0.267,26.737,2.584,2.584,191.086,154.435,147.945
0.268,26.851,2.650,2.650,191.115,154.327,147.968
0.269,26.932,2.708,2.708,191.127,154.251,147.992
0.270,26.987,2.757,2.757,191.126,154.202,148.019
0.272,27.027,2.795,2.795,191.115,154.174,148.046
0.273,27.060,2.824,2.824,191.100,154.162,148.073
0.274,27.091,2.841,2.841,191.085,154.161,148.099
0.275,27.118,2.852,2.852,191.073,154.165,148.123
0.276,27.140,2.859,2.859,191.069,154.169,148.144
0.278,27.160,2.868,2.868,191.077,154.168,148.162
0.279,27.191,2.881,2.881,191.102,154.156,148.176
0.280,27.245,2.904,2.904,191.147,154.127,148.185
0.281,27.332,2.940,2.940,191.218,154.077,148.187
0.282,27.458,2.992,2.992,191.317,154.000,148.184
0.283,27.624,3.066,3.066,191.446,153.895,148.173
0.285,27.823,3.161,3.161,191.599,153.767,148.156
0.286,28.050,3.271,3.271,191.771,153.622,148.135
0.287,28.296,3.393,3.393,191.957,153.463,148.109
0.288,28.555,3.520,3.520,192.153,153.296,148.079
0.289,28.820,3.648,3.648,192.354,153.127,148.047
0.290,29.083,3.772,3.772,192.554,152.959,148.013
0.292,29.338,3.887,3.887,192.748,152.798,147.979
0.293,29.577,3.988,3.988,192.931,152.648,147.944
0.294,29.793,4.070,4.070,193.099,152.516,147.910
0.295,29.981,4.134,4.134,193.247,152.405,147.878
0.296,30.132,4.182,4.182,193.369,152.321,147.848
0.297,30.246,4.217,4.217,193.464,152.264,147.821
0.299,30.327,4.241,4.241,193.534,152.231,147.797
0.300,30.383,4.257,4.257,193.584,152.218,147.774
0.301,30.421,4.267,4.267,193.615,152.221,147.753
0.302,30.450,4.273,4.273,193.630,152.235,147.733
0.303,30.479,4.278,4.278,193.634,152.256,147.714
0.304,30.510,4.284,4.284,193.628,152.281,147.695
0.306,30.543,4.290,4.290,193.616,152.305,147.677
0.307,30.574,4.299,4.299,193.601,152.324,147.657
0.308,30.601,4.310,4.310,193.586,152.334,147.637
0.309,30.626,4.324,4.324,193.573,152.331,147.616
0.310,30.658,4.341,4.341,193.566,152.311,147.593
0.311,30.703,4.361,4.361,193.566,152.272,147.568
0.313,30.764,4.386,4.386,193.574,152.218,147.542
0.314,30.838,4.415,4.415,193.587,152.151,147.514
0.315,30.922,4.448,4.448,193.605,152.073,147.486
0.316,31.014,4.484,4.484,193.628,151.989,147.458
0.317,31.112,4.521,4.521,193.655,151.900,147.429
0.319,31.211,4.558,4.558,193.685,151.809,147.401
0.320,31.310,4.593,4.593,193.717,151.720,147.374
0.321,31.405,4.626,4.626,193.752,151.635,147.348
0.322,31.494,4.655,4.655,193.787,151.558,147.323
0.323,31.574,4.678,4.678,193.823,151.490,147.300
0.324,31.643,4.695,4.695,193.858,151.434,147.279
0.326,31.701,4.705,4.705,193.893,151.392,147.259
0.327,31.751,4.710,4.710,193.927,151.361,147.238
0.328,31.799,4.710,4.710,193.959,151.338,147.213
0.329,31.848,4.706,4.706,193.990,151.320,147.180
0.330,31.903,4.699,4.699,194.020,151.303,147.136
0.331,31.969,4.689,4.689,194.049,151.287,147.079
0.333,32.050,4.677,4.677,194.075,151.266,147.005
0.334,32.150,4.664,4.664,194.100,151.239,146.913
0.335,32.272,4.651,4.651,194.122,151.203,146.798
0.336,32.422,4.640,4.640,194.143,151.154,146.657
0.337,32.603,4.632,4.632,194.161,151.090,146.489
0.338,32.819,4.630,4.630,194.176,151.009,146.289
0.340,33.071,4.634,4.634,194.189,150.909,146.059
0.341,33.351,4.648,4.648,194.200,150.793,145.803
0.342,33.654,4.673,4.673,194.208,150.666,145.529
0.343,33.972,4.710,4.710,194.214,150.530,145.241
0.344,34.298,4.762,4.762,194.218,150.390,144.947
0.345,34.626,4.826,4.826,194.220,150.248,144.651
0.347,34.948,4.899,4.899,194.220,150.109,144.361
0.348,35.258,4.977,4.977,194.218,149.974,144.082
0.349,35.547,5.058,5.058,194.214,149.849,143.821
0.350,35.811,5.137,5.137,194.209,149.737,143.583
0.351,36.041,5.211,5.211,194.202,149.640,143.374
0.352,36.231,5.276,5.276,194.194,149.563,143.201
0.354,36.377,5.329,5.329,194.184,149.507,143.066
0.355,36.484,5.368,5.368,194.174,149.471,142.965
0.356,36.557,5.393,5.393,194.164,149.451,142.896
0.357,36.601,5.407,5.407,194.155,149.446,142.854
0.358,36.624,5.410,5.410,194.146,149.454,142.834
0.359,36.644,5.404,5.404,194.140,149.473,142.834
0.361,36.675,5.391,5.391,194.135,149.501,142.849
0.362,36.718,5.374,5.374,194.134,149.535,142.875
0.363,36.770,5.352,5.352,194.136,149.573,142.909
0.364,36.825,5.328,5.328,194.142,149.614,142.946
0.365,36.881,5.303,5.303,194.152,149.655,142.983
0.367,36.934,5.277,5.277,194.168,149.694,143.015
0.368,36.983,5.250,5.250,194.189,149.729,143.040
0.369,37.026,5.223,5.223,194.214,149.761,143.055
0.370,37.067,5.195,5.195,194.243,149.790,143.058
0.371,37.108,5.166,5.166,194.274,149.815,143.047
0.372,37.156,5.138,5.138,194.306,149.837,143.019
0.374,37.216,5.110,5.110,194.338,149.856,142.973
0.375,37.292,5.081,5.081,194.370,149.872,142.905
0.376,37.388,5.053,5.053,194.400,149.884,142.815
0.377,37.507,5.026,5.026,194.427,149.893,142.699
0.378,37.653,4.998,4.998,194.451,149.899,142.556
0.379,37.827,4.971,4.971,194.470,149.902,142.383
0.381,38.032,4.945,4.945,194.483,149.902,142.178
0.382,38.268,4.918,4.918,194.490,149.899,141.942
0.383,38.530,4.892,4.892,194.491,149.894,141.680
0.384,38.811,4.867,4.867,194.485,149.886,141.399
0.385,39.105,4.843,4.843,194.475,149.877,141.106
0.386,39.405,4.818,4.818,194.459,149.867,140.806
0.388,39.705,4.795,4.795,194.438,149.855,140.507
0.389,39.999,4.772,4.772,194.412,149.843,140.215
0.390,40.280,4.750,4.750,194.381,149.831,139.936
0.391,40.541,4.728,4.728,194.347,149.819,139.677
0.392,40.778,4.707,4.707,194.308,149.808,139.444
0.393,40.982,4.687,4.687,194.266,149.798,139.244
0.395,41.150,4.667,4.667,194.220,149.789,139.083
0.396,41.278,4.649,4.649,194.172,149.782,138.965
0.397,41.372,4.631,4.631,194.124,149.777,138.884
0.398,41.438,4.615,4.615,194.079,149.773,138.836
0.399,41.482,4.599,4.599,194.039,149.770,138.816
0.400,41.513,4.586,4.586,194.009,149.769,138.817
0.402,41.539,4.573,4.573,193.990,149.769,138.836
0.403,41.570,4.562,4.562,193.985,149.770,138.866
0.404,41.609,4.553,4.553,193.997,149.773,138.903
0.405,41.658,4.546,4.546,194.029,149.775,138.940
0.406,41.722,4.541,4.541,194.083,149.779,138.974
0.407,41.806,4.537,4.537,194.163,149.783,138.998
0.409,41.915,4.535,4.535,194.272,149.788,139.007
0.410,42.053,4.535,4.535,194.409,149.793,138.999
0.411,42.217,4.537,4.537,194.572,149.799,138.974
0.412,42.404,4.541,4.541,194.754,149.804,138.935
0.413,42.609,4.546,4.546,194.953,149.808,138.885
0.415,42.827,4.553,4.553,195.162,149.812,138.825
0.416,43.052,4.561,4.562,195.378,149.815,138.758
0.417,43.281,4.571,4.572,195.595,149.817,138.686
0.418,43.507,4.582,4.583,195.809,149.817,138.613
0.419,43.726,4.594,4.595,196.015,149.815,138.538
0.420,43.933,4.606,4.607,196.208,149.811,138.467
0.422,44.121,4.619,4.620,196.385,149.804,138.399
0.423,44.287,4.632,4.632,196.539,149.795,138.339
0.424,44.428,4.644,4.644,196.668,149.783,138.287
0.425,44.544,4.656,4.656,196.775,149.769,138.242
0.426,44.639,4.668,4.667,196.861,149.754,138.205
0.427,44.716,4.678,4.677,196.929,149.738,138.173
0.429,44.778,4.688,4.686,196.982,149.721,138.146
0.430,44.827,4.697,4.695,197.022,149.705,138.122
0.431,44.866,4.704,4.702,197.052,149.691,138.102
0.432,44.897,4.711,4.709,197.074,149.678,138.083
0.433,44.924,4.715,4.714,197.091,149.668,138.066
0.434,44.947,4.718,4.718,197.105,149.661,138.048
0.436,44.971,4.719,4.721,197.119,149.658,138.029
0.437,44.998,4.719,4.723,197.136,149.660,138.009
0.438,45.030,4.716,4.722,197.157,149.667,137.985
0.439,45.067,4.711,4.720,197.182,149.678,137.960
0.440,45.110,4.704,4.715,197.211,149.693,137.932
0.441,45.157,4.695,4.708,197.243,149.712,137.903
0.443,45.208,4.683,4.697,197.277,149.733,137.872
0.444,45.261,4.669,4.684,197.312,149.757,137.840
0.445,45.316,4.651,4.667,197.349,149.782,137.807
0.446,45.373,4.632,4.647,197.387,149.808,137.775
0.447,45.429,4.611,4.624,197.425,149.834,137.742
0.448,45.486,4.589,4.600,197.463,149.861,137.710
0.450,45.540,4.567,4.576,197.499,149.886,137.678
0.451,45.593,4.546,4.553,197.534,149.910,137.647
0.452,45.642,4.527,4.531,197.568,149.932,137.618
0.453,45.689,4.510,4.512,197.599,149.953,137.590
0.454,45.733,4.496,4.497,197.628,149.971,137.562
0.456,45.775,4.487,4.486,197.656,149.988,137.536
0.457,45.816,4.481,4.479,197.683,150.003,137.509
0.458,45.855,4.477,4.475,197.708,150.017,137.482
0.459,45.893,4.475,4.472,197.731,150.029,137.455
0.460,45.930,4.473,4.471,197.754,150.039,137.428
0.461,45.967,4.471,4.469,197.776,150.049,137.399
0.463,46.004,4.468,4.467,197.797,150.057,137.370
0.464,46.042,4.462,4.461,197.818,150.064,137.339
0.465,46.080,4.453,4.453,197.838,150.069,137.306
0.466,46.120,4.440,4.441,197.857,150.074,137.272
0.467,46.163,4.423,4.425,197.877,150.077,137.234
0.468,46.210,4.404,4.405,197.897,150.080,137.192
0.470,46.261,4.381,4.383,197.919,150.081,137.146
0.471,46.319,4.357,4.359,197.942,150.081,137.093
0.472,46.383,4.331,4.333,197.967,150.081,137.034
0.473,46.456,4.305,4.306,197.995,150.079,136.966
0.474,46.539,4.277,4.278,198.027,150.076,136.890
0.475,46.632,4.250,4.249,198.061,150.073,136.804
0.477,46.736,4.223,4.220,198.100,150.068,136.707
