"T","Distance","Radius","FreeRadius","X","Y","Z"
0.000,0.000,1.107,1.107,246.178,235.366,240.794
0.001,0.284,1.180,1.180,246.325,235.490,241.003
0.002,0.563,1.251,1.251,246.470,235.613,241.206
0.003,0.831,1.322,1.322,246.613,235.735,241.397
0.004,1.083,1.390,1.390,246.752,235.856,241.570
0.005,1.315,1.456,1.456,246.885,235.975,241.717
0.006,1.523,1.518,1.518,247.011,236.093,241.834
0.007,1.706,1.576,1.576,247.130,236.207,241.914
0.008,1.866,1.629,1.629,247.238,236.319,241.950
0.009,2.013,1.676,1.676,247.336,236.427,241.937
0.010,2.164,1.717,1.717,247.422,236.532,241.869
0.011,2.340,1.751,1.751,247.494,236.633,241.744
0.012,2.545,1.779,1.779,247.555,236.728,241.573
0.013,2.775,1.802,1.802,247.605,236.819,241.368
0.014,3.024,1.820,1.820,247.645,236.904,241.137
0.015,3.282,1.834,1.834,247.676,236.983,240.893
0.016,3.540,1.845,1.845,247.699,237.056,240.647
0.017,3.788,1.854,1.854,247.715,237.122,240.409
0.018,4.014,1.861,1.861,247.725,237.180,240.190
0.019,4.210,1.868,1.868,247.731,237.230,240.001
0.020,4.364,1.874,1.874,247.732,237.273,239.853
0.021,4.476,1.881,1.881,247.730,237.307,239.746
0.022,4.553,1.888,1.888,247.727,237.335,239.675
0.023,4.602,1.896,1.896,247.721,237.359,239.632
0.024,4.633,1.905,1.905,247.716,237.380,239.611
0.025,4.653,1.915,1.915,247.710,237.399,239.604
0.026,4.673,1.926,1.926,247.706,237.418,239.606
0.027,4.694,1.938,1.938,247.703,237.438,239.608
0.029,4.717,1.952,1.952,247.704,237.462,239.605
0.030,4.750,1.967,1.967,247.707,237.490,239.590
0.031,4.798,1.983,1.983,247.715,237.524,239.556
0.032,4.864,2.001,2.001,247.726,237.563,239.504
0.033,4.946,2.021,2.021,247.740,237.606,239.436
0.034,5.040,2.043,2.043,247.753,237.653,239.355
0.035,5.145,2.067,2.067,247.766,237.701,239.264
0.036,5.257,2.094,2.094,247.776,237.751,239.164
0.037,5.373,2.123,2.123,247.783,237.800,239.058
0.038,5.492,2.156,2.156,247.784,237.848,238.949
0.039,5.611,2.192,2.192,247.779,237.893,238.840
0.040,5.727,2.231,2.231,247.766,237.935,238.732
0.041,5.840,2.275,2.275,247.745,237.973,238.628
0.042,5.949,2.322,2.322,247.717,238.006,238.527
0.043,6.057,2.370,2.371,247.684,238.034,238.429
0.044,6.162,2.420,2.420,247.650,238.058,238.333
0.045,6.265,2.470,2.470,247.616,238.077,238.237
0.046,6.367,2.517,2.517,247.584,238.092,238.142
0.047,6.467,2.561,2.561,247.558,238.102,238.045
0.048,6.567,2.600,2.600,247.538,238.108,237.948
0.049,6.667,2.634,2.634,247.528,238.109,237.848
0.050,6.770,2.660,2.660,247.530,238.106,237.745
0.051,6.877,2.677,2.677,247.545,238.098,237.640
0.052,6.988,2.685,2.685,247.570,238.085,237.532
0.053,7.104,2.686,2.686,247.605,238.067,237.423
0.054,7.223,2.681,2.681,247.646,238.045,237.314
0.055,7.344,2.672,2.672,247.694,238.018,237.206
0.056,7.467,2.659,2.659,247.745,237.985,237.099
0.057,7.589,2.646,2.645,247.799,237.948,236.996
0.058,7.710,2.632,2.632,247.853,237.905,236.897
0.059,7.828,2.619,2.619,247.905,237.857,236.802
0.060,7.943,2.610,2.610,247.955,237.804,236.713
0.061,8.054,2.605,2.605,248.001,237.747,236.630
0.062,8.160,2.605,2.605,248.046,237.690,236.553
0.063,8.260,2.608,2.608,248.088,237.636,236.480
0.064,8.354,2.613,2.613,248.130,237.587,236.411
0.065,8.441,2.619,2.619,248.173,237.547,236.347
0.066,8.522,2.624,2.625,248.216,237.518,236.285
0.067,8.597,2.627,2.628,248.261,237.505,236.227
0.068,8.671,2.627,2.628,248.309,237.509,236.170
0.069,8.750,2.623,2.623,248.360,237.534,236.116
0.070,8.840,2.613,2.613,248.415,237.582,236.062
0.071,8.945,2.596,2.595,248.477,237.648,236.010
0.072,9.062,2.571,2.571,248.547,237.726,235.958
0.073,9.189,2.542,2.540,248.628,237.811,235.907
0.074,9.325,2.508,2.506,248.721,237.895,235.856
0.075,9.468,2.471,2.469,248.829,237.974,235.804
0.076,9.618,2.433,2.430,248.953,238.040,235.753
0.077,9.777,2.394,2.392,249.095,238.088,235.700
0.078,9.951,2.357,2.355,249.258,238.112,235.646
0.079,10.145,2.322,2.321,249.444,238.106,235.591
0.080,10.364,2.291,2.291,249.652,238.066,235.535
0.081,10.605,2.265,2.266,249.877,237.999,235.479
0.082,10.861,2.245,2.248,250.111,237.910,235.424
0.084,11.126,2.229,2.235,250.348,237.804,235.371
0.085,11.392,2.218,2.226,250.582,237.688,235.322
0.086,11.650,2.211,2.220,250.805,237.567,235.277
0.087,11.891,2.208,2.218,251.012,237.448,235.237
0.088,12.109,2.208,2.218,251.195,237.337,235.205
0.089,12.293,2.210,2.219,251.349,237.238,235.180
0.090,12.435,2.215,2.222,251.466,237.158,235.164
0.091,12.536,2.222,2.224,251.547,237.099,235.157
0.092,12.602,2.231,2.226,251.598,237.057,235.156
0.093,12.643,2.241,2.228,251.626,237.028,235.160
0.094,12.665,2.252,2.231,251.638,237.009,235.165
0.095,12.678,2.264,2.235,251.639,236.998,235.171
0.096,12.686,2.277,2.242,251.638,236.990,235.174
0.097,12.694,2.290,2.252,251.640,236.983,235.173
0.098,12.712,2.304,2.266,251.653,236.973,235.165
0.099,12.750,2.318,2.285,251.683,236.956,235.148
0.100,12.815,2.332,2.310,251.735,236.930,235.120
0.101,12.906,2.345,2.341,251.810,236.895,235.083
0.102,13.018,2.358,2.379,251.904,236.851,235.040
0.103,13.147,2.371,2.423,252.013,236.801,234.991
0.104,13.289,2.384,2.472,252.134,236.745,234.942
0.105,13.439,2.397,2.522,252.262,236.685,234.893
0.106,13.593,2.411,2.573,252.395,236.621,234.848
0.107,13.747,2.425,2.623,252.528,236.556,234.809
0.108,13.896,2.440,2.669,252.659,236.490,234.779
0.109,14.037,2.456,2.709,252.783,236.425,234.761
0.110,14.168,2.472,2.742,252.897,236.362,234.755
0.111,14.288,2.491,2.766,253.001,236.302,234.762
0.112,14.399,2.511,2.780,253.095,236.246,234.778
0.113,14.500,2.531,2.783,253.180,236.194,234.801
0.114,14.592,2.553,2.779,253.254,236.148,234.830
0.115,14.674,2.574,2.769,253.318,236.109,234.861
0.116,14.744,2.595,2.753,253.372,236.078,234.894
0.117,14.803,2.614,2.735,253.416,236.055,234.925
0.118,14.849,2.632,2.716,253.451,236.041,234.953
0.119,14.883,2.647,2.697,253.475,236.038,234.976
0.120,14.905,2.659,2.681,253.490,236.045,234.991
0.121,14.923,2.667,2.669,253.497,236.058,235.001
0.122,14.940,2.671,2.662,253.499,236.073,235.006
0.123,14.955,2.672,2.659,253.496,236.089,235.007
0.124,14.968,2.669,2.661,253.491,236.100,235.004
0.125,14.977,2.664,2.665,253.485,236.104,234.998
0.126,14.989,2.656,2.670,253.480,236.097,234.991
0.127,15.012,2.647,2.676,253.478,236.076,234.982
0.128,15.052,2.636,2.681,253.480,236.036,234.974
0.129,15.113,2.625,2.684,253.489,235.976,234.966
0.130,15.195,2.614,2.685,253.503,235.896,234.958
0.131,15.295,2.603,2.681,253.524,235.799,234.951
0.132,15.408,2.592,2.673,253.550,235.689,234.945
0.133,15.530,2.583,2.661,253.579,235.570,234.937
0.134,15.658,2.574,2.646,253.612,235.447,234.930
0.135,15.788,2.566,2.629,253.648,235.322,234.921
0.136,15.916,2.559,2.611,253.685,235.200,234.911
0.137,16.039,2.553,2.593,253.724,235.084,234.900
0.138,16.152,2.548,2.576,253.763,234.979,234.887
0.140,16.252,2.544,2.561,253.801,234.887,234.872
0.141,16.341,2.542,2.548,253.839,234.809,234.855
0.142,16.418,2.540,2.539,253.875,234.743,234.837
0.143,16.485,2.540,2.535,253.909,234.689,234.818
0.144,16.544,2.540,2.534,253.941,234.644,234.799
0.145,16.594,2.541,2.536,253.971,234.607,234.780
0.146,16.638,2.543,2.541,253.998,234.578,234.762
0.147,16.674,2.546,2.548,254.021,234.555,234.745
0.148,16.705,2.548,2.555,254.040,234.537,234.730
0.149,16.729,2.551,2.563,254.055,234.523,234.717
0.150,16.748,2.553,2.570,254.065,234.511,234.707
0.151,16.762,2.555,2.576,254.072,234.501,234.700
0.152,16.774,2.557,2.580,254.076,234.492,234.694
0.153,16.783,2.558,2.582,254.078,234.484,234.689
0.154,16.791,2.558,2.582,254.078,234.476,234.686
0.155,16.800,2.558,2.580,254.077,234.468,234.684
0.156,16.809,2.558,2.577,254.077,234.458,234.682
0.157,16.820,2.557,2.573,254.077,234.447,234.681
0.158,16.834,2.555,2.568,254.079,234.434,234.679
0.159,16.850,2.554,2.562,254.083,234.418,234.676
0.160,16.871,2.552,2.557,254.089,234.399,234.673
0.161,16.896,2.550,2.551,254.098,234.376,234.669
0.162,16.926,2.547,2.547,254.110,234.350,234.663
0.163,16.961,2.545,2.542,254.124,234.318,234.656
0.164,17.001,2.542,2.539,254.140,234.282,234.647
0.165,17.047,2.540,2.536,254.158,234.241,234.636
0.166,17.099,2.537,2.533,254.178,234.195,234.624
0.167,17.157,2.534,2.531,254.200,234.143,234.610
0.168,17.222,2.532,2.529,254.223,234.084,234.593
0.169,17.294,2.529,2.527,254.248,234.020,234.574
0.170,17.372,2.526,2.525,254.274,233.950,234.552
0.171,17.452,2.523,2.523,254.302,233.878,234.529
0.172,17.534,2.521,2.521,254.330,233.806,234.503
0.173,17.614,2.518,2.519,254.359,233.737,234.475
0.174,17.691,2.515,2.516,254.389,233.672,234.446
0.175,17.763,2.511,2.512,254.419,233.614,234.415
0.176,17.828,2.505,2.506,254.449,233.567,234.383
0.177,17.885,2.499,2.500,254.479,233.531,234.349
0.178,17.935,2.490,2.491,254.508,233.511,234.314
0.179,17.982,2.479,2.480,254.537,233.506,234.278
0.180,18.029,2.466,2.466,254.565,233.512,234.241
0.181,18.079,2.450,2.450,254.593,233.525,234.201
0.182,18.131,2.431,2.431,254.619,233.537,234.158
0.183,18.184,2.408,2.408,254.644,233.545,234.112
0.184,18.240,2.385,2.384,254.667,233.541,234.061
0.185,18.303,2.361,2.360,254.688,233.521,234.006
0.186,18.380,2.338,2.337,254.708,233.479,233.944
0.187,18.479,2.317,2.317,254.725,233.408,233.876
0.188,18.608,2.299,2.299,254.739,233.304,233.802
0.189,18.769,2.287,2.287,254.752,233.166,233.720
0.190,18.957,2.281,2.280,254.762,232.999,233.633
0.191,19.164,2.281,2.281,254.771,232.813,233.543
0.192,19.383,2.291,2.291,254.780,232.614,233.452
0.193,19.606,2.309,2.309,254.788,232.410,233.362
0.195,19.826,2.333,2.333,254.796,232.209,233.275
0.196,20.033,2.361,2.362,254.806,232.019,233.192
0.197,20.222,2.393,2.393,254.816,231.847,233.116
0.198,20.383,2.425,2.425,254.829,231.701,233.048
0.199,20.510,2.457,2.457,254.845,231.589,232.991
0.200,20.602,2.486,2.486,254.862,231.511,232.945
0.201,20.665,2.510,2.510,254.880,231.462,232.909
0.202,20.706,2.528,2.528,254.897,231.436,232.883
0.203,20.731,2.538,2.538,254.912,231.428,232.865
0.204,20.747,2.539,2.539,254.924,231.433,232.855
0.205,20.761,2.534,2.534,254.930,231.446,232.852
0.206,20.775,2.523,2.523,254.931,231.460,232.856
0.207,20.791,2.507,2.507,254.923,231.471,232.865
0.208,20.813,2.488,2.488,254.907,231.472,232.879
0.209,20.847,2.466,2.466,254.880,231.460,232.896
0.210,20.892,2.443,2.443,254.847,231.437,232.915
0.211,20.942,2.420,2.420,254.811,231.407,232.934
0.212,20.990,2.399,2.399,254.778,231.375,232.949
0.213,21.030,2.379,2.380,254.753,231.346,232.957
0.214,21.056,2.362,2.363,254.739,231.324,232.957
0.215,21.070,2.347,2.348,254.742,231.315,232.946
0.216,21.106,2.334,2.334,254.766,231.322,232.921
0.217,21.178,2.321,2.322,254.817,231.352,232.880
0.218,21.294,2.309,2.310,254.898,231.408,232.819
0.219,21.458,2.297,2.298,255.013,231.494,232.738
0.220,21.663,2.285,2.286,255.156,231.602,232.640
0.221,21.901,2.272,2.273,255.322,231.729,232.526
0.222,22.162,2.258,2.258,255.506,231.866,232.401
0.223,22.438,2.242,2.242,255.701,232.008,232.267
0.224,22.720,2.225,2.224,255.903,232.147,232.127
0.225,23.000,2.208,2.207,256.104,232.278,231.985
0.226,23.268,2.192,2.190,256.300,232.394,231.843
0.227,23.517,2.177,2.174,256.485,232.489,231.705
0.228,23.740,2.164,2.162,256.653,232.555,231.574
0.229,23.936,2.155,2.153,256.801,232.592,231.451
0.230,24.108,2.150,2.148,256.930,232.604,231.337
0.231,24.261,2.150,2.148,257.040,232.594,231.233
0.232,24.396,2.156,2.156,257.134,232.568,231.139
0.233,24.516,2.168,2.170,257.212,232.531,231.055
0.234,24.622,2.186,2.190,257.274,232.486,230.982
0.235,24.714,2.209,2.214,257.323,232.440,230.919
0.236,24.790,2.234,2.242,257.358,232.395,230.869
0.237,24.849,2.261,2.272,257.382,232.358,230.830
0.238,24.889,2.289,2.301,257.395,232.331,230.803
0.239,24.912,2.315,2.330,257.399,232.316,230.787
0.240,24.922,2.338,2.355,257.397,232.310,230.779
0.241,24.929,2.358,2.375,257.391,232.308,230.777
0.242,24.936,2.372,2.390,257.384,232.310,230.778
0.243,24.941,2.380,2.398,257.379,232.311,230.780
0.244,24.943,2.383,2.399,257.378,232.310,230.781
0.245,24.954,2.380,2.395,257.384,232.302,230.778
0.246,24.978,2.374,2.387,257.400,232.286,230.769
0.247,25.022,2.366,2.376,257.428,232.258,230.750
0.248,25.087,2.355,2.364,257.469,232.216,230.722
0.249,25.173,2.345,2.351,257.523,232.162,230.683
0.251,25.274,2.335,2.338,257.587,232.098,230.637
0.252,25.386,2.326,2.328,257.656,232.028,230.585
0.253,25.504,2.321,2.321,257.729,231.953,230.530
0.254,25.624,2.319,2.318,257.802,231.877,230.472
0.255,25.741,2.320,2.318,257.872,231.802,230.415
0.256,25.852,2.323,2.321,257.937,231.732,230.360
0.257,25.951,2.328,2.326,257.992,231.667,230.309
0.258,26.035,2.334,2.332,258.037,231.613,230.263
0.259,26.101,2.341,2.338,258.068,231.569,230.225
0.260,26.152,2.346,2.345,258.089,231.535,230.193
0.261,26.191,2.351,2.350,258.102,231.509,230.167
0.262,26.221,2.354,2.353,258.111,231.490,230.146
0.263,26.244,2.354,2.354,258.118,231.478,230.128
0.264,26.263,2.352,2.352,258.127,231.469,230.113
0.265,26.282,2.346,2.347,258.141,231.464,230.101
0.266,26.306,2.339,2.340,258.162,231.460,230.090
0.267,26.340,2.330,2.331,258.194,231.457,230.079
0.268,26.387,2.319,2.320,258.239,231.452,230.068
0.269,26.448,2.308,2.309,258.299,231.446,230.056
0.270,26.523,2.297,2.298,258.372,231.438,230.043
0.271,26.609,2.286,2.286,258.457,231.429,230.027
0.272,26.707,2.276,2.276,258.552,231.419,230.009
0.273,26.814,2.266,2.266,258.657,231.409,229.987
0.274,26.931,2.259,2.258,258.770,231.398,229.961
0.275,27.054,2.253,2.252,258.889,231.387,229.931
0.276,27.184,2.249,2.247,259.014,231.376,229.896
0.277,27.319,2.246,2.244,259.142,231.365,229.856
0.278,27.459,2.246,2.243,259.274,231.355,229.810
0.279,27.603,2.246,2.244,259.408,231.347,229.758
0.280,27.749,2.249,2.247,259.543,231.340,229.703
0.281,27.898,2.254,2.252,259.681,231.337,229.646
0.282,28.048,2.260,2.259,259.820,231.339,229.589
0.283,28.200,2.268,2.268,259.960,231.346,229.532
0.284,28.352,2.278,2.279,260.101,231.359,229.478
0.285,28.504,2.289,2.293,260.243,231.379,229.427
0.286,28.656,2.302,2.308,260.386,231.408,229.382
0.287,28.809,2.317,2.325,260.529,231.446,229.343
0.288,28.963,2.333,2.343,260.671,231.494,229.312
0.289,29.117,2.351,2.363,260.813,231.550,229.288
0.290,29.271,2.370,2.384,260.953,231.612,229.271
0.291,29.423,2.391,2.405,261.090,231.676,229.258
0.292,29.571,2.413,2.428,261.223,231.742,229.250
0.293,29.715,2.435,2.451,261.351,231.807,229.244
0.294,29.852,2.459,2.474,261.473,231.868,229.240
0.295,29.979,2.484,2.497,261.588,231.924,229.238
0.296,30.097,2.509,2.521,261.695,231.972,229.235
0.297,30.202,2.533,2.544,261.793,232.009,229.232
0.298,30.295,2.557,2.566,261.882,232.035,229.226
0.299,30.376,2.581,2.587,261.961,232.051,229.219
0.300,30.446,2.603,2.608,262.030,232.058,229.209
0.301,30.507,2.624,2.626,262.090,232.056,229.197
0.302,30.560,2.643,2.643,262.140,232.047,229.182
0.303,30.606,2.659,2.658,262.181,232.032,229.164
0.304,30.649,2.673,2.671,262.211,232.012,229.143
0.305,30.689,2.684,2.682,262.232,231.987,229.119
0.307,30.729,2.693,2.690,262.243,231.960,229.091
0.308,30.773,2.699,2.696,262.244,231.931,229.059
0.309,30.817,2.702,2.699,262.238,231.902,229.026
0.310,30.859,2.702,2.700,262.226,231.878,228.993
0.311,30.895,2.699,2.697,262.213,231.861,228.965
0.312,30.919,2.692,2.691,262.201,231.856,228.944
0.313,30.934,2.683,2.682,262.194,231.865,228.934
0.314,30.962,2.670,2.670,262.194,231.892,228.938
0.315,31.016,2.654,2.655,262.205,231.940,228.959
0.316,31.104,2.637,2.638,262.229,232.014,229.001
0.317,31.232,2.618,2.620,262.271,232.117,229.065
0.318,31.404,2.599,2.601,262.332,232.250,229.155
0.319,31.616,2.581,2.584,262.412,232.412,229.266
0.320,31.858,2.564,2.567,262.511,232.597,229.388
0.321,32.124,2.551,2.553,262.627,232.800,229.514
0.322,32.406,2.540,2.542,262.759,233.016,229.636
0.323,32.696,2.535,2.535,262.907,233.240,229.746
0.324,32.990,2.534,2.533,263.069,233.468,229.837
0.325,33.282,2.539,2.536,263.245,233.693,229.899
0.326,33.571,2.549,2.545,263.432,233.911,229.925
0.327,33.858,2.565,2.558,263.631,234.118,229.907
0.328,34.148,2.584,2.577,263.840,234.308,229.842
0.329,34.443,2.608,2.600,264.055,234.482,229.739
0.330,34.743,2.636,2.628,264.275,234.640,229.609
0.331,35.043,2.668,2.660,264.497,234.781,229.464
0.332,35.337,2.702,2.697,264.717,234.906,229.315
0.333,35.618,2.740,2.738,264.934,235.013,229.173
0.334,35.878,2.780,2.783,265.143,235.105,229.049
0.335,36.112,2.822,2.832,265.344,235.179,228.954
0.336,36.316,2.865,2.882,265.532,235.237,228.901
0.337,36.494,2.907,2.933,265.705,235.278,228.899
0.338,36.662,2.949,2.983,265.863,235.305,228.950
0.339,36.835,2.989,3.031,266.006,235.321,229.045
0.340,37.017,3.026,3.075,266.137,235.333,229.172
0.341,37.209,3.060,3.114,266.257,235.345,229.321
0.342,37.405,3.089,3.147,266.368,235.362,229.481
0.343,37.597,3.112,3.172,266.471,235.388,229.642
0.344,37.781,3.129,3.188,266.568,235.430,229.792
0.345,37.952,3.140,3.197,266.660,235.491,229.922
0.346,38.110,3.147,3.199,266.750,235.577,230.020
0.347,38.266,3.152,3.198,266.839,235.692,230.076
0.348,38.434,3.157,3.195,266.926,235.836,230.090
0.349,38.624,3.163,3.193,267.012,236.004,230.067
0.350,38.838,3.171,3.193,267.095,236.192,230.012
0.351,39.073,3.184,3.198,267.175,236.398,229.929
0.352,39.328,3.202,3.209,267.251,236.616,229.822
0.353,39.597,3.229,3.230,267.323,236.843,229.698
0.354,39.875,3.264,3.261,267.388,237.076,229.561
0.355,40.157,3.308,3.301,267.448,237.310,229.415
0.356,40.437,3.358,3.350,267.501,237.541,229.265
0.357,40.711,3.413,3.405,267.546,237.767,229.116
0.358,40.976,3.472,3.464,267.585,237.984,228.970
0.359,41.229,3.533,3.526,267.617,238.191,228.828
0.360,41.468,3.594,3.589,267.644,238.386,228.693
0.362,41.691,3.654,3.650,267.667,238.568,228.565
0.363,41.897,3.711,3.709,267.685,238.734,228.447
0.364,42.081,3.764,3.763,267.701,238.884,228.340
0.365,42.243,3.811,3.812,267.714,239.014,228.245
0.366,42.379,3.852,3.854,267.726,239.124,228.164
0.367,42.488,3.888,3.890,267.737,239.211,228.100
0.368,42.569,3.919,3.921,267.748,239.275,228.051
0.369,42.626,3.945,3.947,267.758,239.319,228.018
0.370,42.661,3.966,3.967,267.768,239.346,227.997
0.371,42.679,3.983,3.984,267.776,239.359,227.987
0.372,42.686,3.996,3.997,267.782,239.359,227.985
0.373,42.697,4.005,4.006,267.787,239.351,227.990
0.374,42.714,4.011,4.011,267.789,239.337,228.000
0.375,42.735,4.015,4.014,267.789,239.320,228.012
0.376,42.757,4.015,4.015,267.786,239.302,228.026
0.377,42.777,4.014,4.013,267.780,239.288,228.038
0.378,42.794,4.011,4.010,267.772,239.277,228.048
0.379,42.808,4.006,4.006,267.763,239.270,228.055
0.380,42.818,4.002,4.002,267.754,239.266,228.060
0.381,42.825,3.997,3.997,267.748,239.266,228.061
0.382,42.830,3.993,3.993,267.745,239.270,228.059
0.383,42.840,3.990,3.990,267.748,239.277,228.053
0.384,42.857,3.988,3.988,267.757,239.288,228.043
0.385,42.883,3.988,3.987,267.776,239.301,228.029
0.386,42.921,3.989,3.988,267.804,239.318,228.011
0.387,42.971,3.991,3.990,267.843,239.337,227.987
0.388,43.030,3.993,3.992,267.891,239.358,227.961
0.389,43.094,3.995,3.994,267.945,239.380,227.932
0.390,43.160,3.997,3.996,268.000,239.400,227.904
0.391,43.222,3.997,3.996,268.054,239.418,227.877
0.392,43.277,3.995,3.994,268.102,239.432,227.855
0.393,43.321,3.991,3.991,268.141,239.441,227.837
0.394,43.349,3.984,3.984,268.167,239.442,227.827
0.395,43.361,3.975,3.976,268.178,239.436,227.826
0.396,43.383,3.963,3.965,268.168,239.419,227.836
0.397,43.428,3.951,3.954,268.137,239.393,227.857
0.398,43.488,3.939,3.943,268.094,239.362,227.885
0.399,43.552,3.928,3.933,268.047,239.331,227.914
0.400,43.607,3.921,3.925,268.006,239.305,227.941
0.401,43.642,3.917,3.922,267.980,239.290,227.959
0.402,43.648,3.919,3.922,267.979,239.292,227.965
0.403,43.690,3.926,3.928,268.012,239.315,227.952
0.404,43.788,3.942,3.941,268.088,239.365,227.916
0.405,43.954,3.965,3.961,268.217,239.448,227.852
0.406,44.200,3.994,3.987,268.408,239.568,227.755
0.407,44.525,4.029,4.018,268.661,239.725,227.625
0.408,44.913,4.068,4.054,268.963,239.912,227.468
0.409,45.346,4.110,4.093,269.300,240.119,227.293
0.410,45.805,4.152,4.134,269.659,240.337,227.107
0.411,46.273,4.194,4.178,270.024,240.559,226.917
0.412,46.731,4.235,4.222,270.383,240.774,226.731
0.413,47.161,4.272,4.266,270.721,240.975,226.556
0.414,47.545,4.305,4.309,271.023,241.153,226.399
