"T","Distance","Radius","FreeRadius","X","Y","Z"
0.000,0.000,0.964,0.964,216.989,182.872,168.288
0.002,0.033,0.951,0.951,216.997,182.860,168.318
0.004,0.064,0.940,0.940,217.005,182.849,168.346
0.006,0.091,0.931,0.931,217.013,182.839,168.369
0.008,0.112,0.926,0.926,217.022,182.830,168.386
0.010,0.126,0.926,0.926,217.031,182.823,168.394
0.012,0.138,0.933,0.933,217.041,182.817,168.391
0.014,0.157,0.946,0.946,217.052,182.815,168.375
0.016,0.190,0.968,0.968,217.064,182.815,168.344
0.018,0.241,0.998,0.998,217.077,182.819,168.295
0.020,0.311,1.037,1.037,217.092,182.827,168.227
0.022,0.403,1.086,1.086,217.108,182.839,168.137
0.024,0.520,1.144,1.144,217.125,182.855,168.023
0.026,0.661,1.210,1.210,217.144,182.877,167.885
0.028,0.823,1.283,1.283,217.163,182.903,167.726
0.030,1.001,1.361,1.361,217.182,182.933,167.552
0.032,1.192,1.445,1.445,217.200,182.967,167.365
0.034,1.390,1.530,1.530,217.215,183.004,167.171
0.036,1.592,1.613,1.613,217.227,183.044,166.973
0.037,1.793,1.690,1.690,217.234,183.086,166.777
0.039,1.989,1.758,1.758,217.237,183.129,166.585
0.041,2.176,1.813,1.813,217.233,183.175,166.404
0.043,2.350,1.853,1.853,217.221,183.221,166.237
0.045,2.508,1.882,1.882,217.202,183.267,166.087
0.047,2.646,1.902,1.902,217.173,183.314,165.961
0.049,2.765,1.915,1.915,217.136,183.360,165.858
0.051,2.868,1.924,1.924,217.091,183.406,165.776
0.053,2.960,1.930,1.930,217.042,183.450,165.712
0.055,3.043,1.935,1.935,216.989,183.492,165.664
0.057,3.118,1.940,1.940,216.936,183.531,165.628
0.059,3.187,1.945,1.945,216.884,183.568,165.602
0.061,3.250,1.953,1.953,216.834,183.601,165.583
0.063,3.305,1.962,1.962,216.790,183.631,165.569
0.065,3.352,1.972,1.972,216.752,183.656,165.555
0.067,3.390,1.980,1.980,216.723,183.676,165.540
0.069,3.421,1.985,1.985,216.705,183.690,165.521
0.071,3.449,1.985,1.985,216.700,183.699,165.494
0.073,3.483,1.979,1.979,216.705,183.703,165.461
0.075,3.522,1.971,1.971,216.716,183.705,165.424
0.077,3.563,1.964,1.964,216.727,183.707,165.384
0.079,3.603,1.962,1.962,216.735,183.711,165.346
0.081,3.640,1.969,1.969,216.733,183.720,165.310
0.083,3.677,1.987,1.987,216.718,183.736,165.279
0.085,3.725,2.007,2.007,216.684,183.761,165.256
0.087,3.794,2.020,2.020,216.627,183.798,165.244
0.089,3.894,2.017,2.017,216.541,183.848,165.244
0.091,4.031,1.989,1.989,216.422,183.915,165.258
0.093,4.213,1.929,1.929,216.265,184.000,165.291
0.095,4.444,1.846,1.846,216.066,184.106,165.342
0.097,4.719,1.754,1.754,215.830,184.230,165.412
0.099,5.029,1.666,1.666,215.565,184.367,165.495
0.101,5.365,1.598,1.598,215.278,184.515,165.589
0.103,5.718,1.560,1.560,214.977,184.668,165.692
0.105,6.079,1.553,1.553,214.670,184.823,165.798
0.107,6.437,1.569,1.569,214.364,184.977,165.906
0.108,6.785,1.603,1.603,214.068,185.124,166.012
0.110,7.112,1.647,1.647,213.788,185.261,166.113
0.112,7.409,1.695,1.695,213.534,185.385,166.206
0.114,7.668,1.743,1.743,213.313,185.490,166.286
0.116,7.878,1.788,1.788,213.131,185.574,166.352
0.118,8.034,1.826,1.826,212.996,185.633,166.401
0.120,8.140,1.854,1.854,212.902,185.670,166.434
0.122,8.203,1.869,1.869,212.845,185.688,166.454
0.124,8.230,1.872,1.872,212.820,185.692,166.462
0.126,8.238,1.869,1.869,212.820,185.683,166.460
0.128,8.265,1.865,1.865,212.841,185.667,166.452
0.130,8.309,1.863,1.863,212.877,185.647,166.439
0.132,8.362,1.869,1.869,212.922,185.625,166.422
0.134,8.418,1.884,1.884,212.972,185.606,166.406
0.136,8.470,1.905,1.905,213.020,185.593,166.390
0.138,8.514,1.925,1.925,213.062,185.590,166.378
0.140,8.546,1.942,1.942,213.092,185.599,166.372
0.142,8.575,1.950,1.950,213.107,185.624,166.373
0.144,8.612,1.949,1.949,213.109,185.661,166.380
0.146,8.662,1.942,1.942,213.098,185.708,166.393
0.148,8.722,1.935,1.935,213.078,185.762,166.409
0.150,8.791,1.930,1.930,213.050,185.821,166.429
0.152,8.865,1.934,1.934,213.016,185.883,166.450
0.154,8.941,1.948,1.948,212.978,185.945,166.473
0.156,9.016,1.967,1.967,212.938,186.004,166.497
0.158,9.087,1.989,1.989,212.897,186.058,166.519
0.160,9.152,2.006,2.006,212.858,186.105,166.540
0.162,9.205,2.016,2.016,212.823,186.141,166.557
0.164,9.246,2.016,2.016,212.793,186.165,166.571
0.166,9.274,2.007,2.007,212.769,186.177,166.582
0.168,9.292,1.995,1.995,212.753,186.179,166.589
0.170,9.302,1.982,1.982,212.745,186.175,166.594
0.172,9.310,1.974,1.974,212.746,186.168,166.598
0.174,9.323,1.973,1.973,212.755,186.161,166.602
0.176,9.342,1.977,1.977,212.774,186.158,166.607
0.178,9.373,1.981,1.981,212.804,186.162,166.613
0.179,9.416,1.982,1.982,212.844,186.175,166.621
0.181,9.475,1.976,1.976,212.896,186.201,166.633
0.183,9.554,1.959,1.959,212.960,186.244,166.649
0.185,9.655,1.933,1.933,213.036,186.306,166.670
0.187,9.781,1.903,1.903,213.126,186.391,166.697
0.189,9.930,1.872,1.872,213.227,186.496,166.730
0.191,10.098,1.844,1.844,213.336,186.619,166.766
0.193,10.280,1.824,1.824,213.451,186.754,166.804
0.195,10.471,1.812,1.812,213.570,186.899,166.842
0.197,10.665,1.808,1.808,213.688,187.048,166.880
0.199,10.859,1.812,1.812,213.803,187.199,166.915
0.201,11.045,1.825,1.825,213.913,187.347,166.945
0.203,11.220,1.845,1.845,214.014,187.488,166.969
0.205,11.379,1.869,1.869,214.104,187.618,166.986
0.207,11.518,1.895,1.895,214.180,187.733,166.994
0.209,11.630,1.916,1.916,214.239,187.830,166.990
0.211,11.716,1.929,1.929,214.278,187.905,166.975
0.213,11.782,1.928,1.928,214.299,187.961,166.949
0.215,11.837,1.915,1.915,214.304,188.004,166.915
0.217,11.892,1.895,1.895,214.296,188.040,166.875
0.219,11.951,1.875,1.875,214.277,188.075,166.830
0.221,12.018,1.860,1.860,214.248,188.113,166.784
0.223,12.092,1.857,1.857,214.213,188.161,166.739
0.225,12.177,1.868,1.868,214.175,188.223,166.696
0.227,12.277,1.886,1.886,214.134,188.307,166.658
0.229,12.398,1.907,1.907,214.094,188.416,166.627
0.231,12.545,1.923,1.923,214.057,188.557,166.606
0.233,12.726,1.931,1.931,214.025,188.734,166.596
0.235,12.945,1.928,1.928,214.000,188.952,166.599
0.237,13.198,1.929,1.929,213.982,189.204,166.614
0.239,13.477,1.948,1.948,213.970,189.481,166.639
0.241,13.774,1.998,1.998,213.965,189.777,166.672
0.243,14.083,2.096,2.096,213.965,190.083,166.711
0.245,14.395,2.245,2.245,213.970,190.392,166.755
0.247,14.703,2.426,2.426,213.980,190.696,166.802
0.249,14.999,2.610,2.610,213.995,190.988,166.850
0.250,15.275,2.772,2.772,214.014,191.259,166.898
0.252,15.522,2.884,2.884,214.036,191.501,166.943
0.254,15.735,2.927,2.927,214.062,191.708,166.984
0.256,15.904,2.914,2.914,214.090,191.872,167.020
0.258,16.028,2.865,2.865,214.120,191.988,167.048
0.260,16.112,2.803,2.803,214.150,192.064,167.070
0.262,16.164,2.747,2.747,214.178,192.104,167.085
0.264,16.192,2.716,2.716,214.202,192.114,167.095
0.266,16.215,2.712,2.712,214.221,192.101,167.098
0.268,16.248,2.729,2.729,214.231,192.069,167.097
0.270,16.291,2.764,2.764,214.232,192.026,167.090
0.272,16.343,2.809,2.809,214.222,191.977,167.079
0.274,16.401,2.862,2.862,214.197,191.927,167.063
0.276,16.463,2.915,2.915,214.157,191.883,167.043
0.278,16.533,2.965,2.965,214.100,191.851,167.019
0.280,16.615,3.006,3.006,214.024,191.836,166.992
0.282,16.715,3.033,3.033,213.929,191.840,166.962
0.284,16.831,3.041,3.041,213.819,191.860,166.930
0.286,16.961,3.031,3.031,213.699,191.894,166.897
0.288,17.101,3.009,3.009,213.570,191.939,166.863
0.290,17.247,2.981,2.981,213.438,191.993,166.828
0.292,17.396,2.953,2.953,213.306,192.052,166.795
0.294,17.544,2.931,2.931,213.177,192.115,166.763
0.296,17.684,2.916,2.916,213.055,192.179,166.733
0.298,17.815,2.907,2.907,212.943,192.241,166.706
0.300,17.930,2.901,2.901,212.846,192.299,166.683
0.302,18.026,2.895,2.895,212.767,192.349,166.664
0.304,18.098,2.888,2.888,212.709,192.390,166.651
0.306,18.148,2.879,2.879,212.671,192.422,166.642
0.308,18.179,2.869,2.869,212.651,192.444,166.637
0.310,18.195,2.859,2.859,212.644,192.459,166.634
0.312,18.204,2.852,2.852,212.648,192.467,166.634
0.314,18.216,2.848,2.848,212.660,192.468,166.636
0.316,18.233,2.849,2.849,212.676,192.464,166.637
0.318,18.252,2.852,2.852,212.694,192.456,166.638
0.320,18.272,2.857,2.857,212.710,192.445,166.638
0.321,18.290,2.861,2.861,212.721,192.431,166.636
0.323,18.307,2.862,2.862,212.724,192.415,166.630
0.325,18.328,2.859,2.859,212.715,192.399,166.620
0.327,18.359,2.853,2.853,212.693,192.382,166.606
0.329,18.402,2.844,2.844,212.658,192.367,166.587
0.331,18.455,2.834,2.834,212.611,192.353,166.565
0.333,18.518,2.822,2.822,212.555,192.342,166.538
0.335,18.589,2.811,2.811,212.491,192.335,166.509
0.337,18.667,2.799,2.799,212.421,192.332,166.476
0.339,18.749,2.787,2.787,212.346,192.333,166.442
0.341,18.835,2.774,2.774,212.269,192.341,166.405
0.343,18.923,2.761,2.761,212.190,192.356,166.367
0.345,19.013,2.747,2.747,212.113,192.379,166.328
0.347,19.103,2.732,2.732,212.038,192.410,166.289
0.349,19.194,2.716,2.716,211.967,192.450,166.249
0.351,19.285,2.698,2.698,211.902,192.500,166.210
0.353,19.377,2.678,2.678,211.842,192.558,166.171
0.355,19.469,2.657,2.657,211.788,192.623,166.134
0.357,19.561,2.636,2.636,211.740,192.693,166.100
0.359,19.652,2.617,2.617,211.697,192.767,166.069
0.361,19.741,2.603,2.603,211.660,192.844,166.042
0.363,19.828,2.598,2.598,211.629,192.921,166.019
0.365,19.910,2.603,2.603,211.603,192.998,166.001
0.367,19.988,2.615,2.615,211.584,193.073,165.990
0.369,20.061,2.628,2.628,211.570,193.144,165.985
0.371,20.128,2.635,2.635,211.562,193.210,165.987
0.373,20.188,2.629,2.629,211.559,193.270,165.998
0.375,20.243,2.604,2.604,211.562,193.321,166.015
0.377,20.293,2.562,2.562,211.567,193.365,166.037
0.379,20.336,2.513,2.513,211.575,193.402,166.060
0.381,20.372,2.469,2.469,211.582,193.430,166.082
0.383,20.398,2.441,2.441,211.586,193.449,166.098
0.385,20.411,2.438,2.438,211.587,193.461,166.105
0.387,20.418,2.463,2.463,211.582,193.463,166.102
0.389,20.441,2.501,2.501,211.569,193.457,166.084
0.391,20.486,2.540,2.540,211.547,193.442,166.048
0.393,20.556,2.565,2.565,211.513,193.418,165.992
0.394,20.654,2.562,2.562,211.467,193.384,165.911
0.396,20.785,2.525,2.525,211.405,193.341,165.804
0.398,20.946,2.463,2.463,211.330,193.290,165.672
0.400,21.132,2.387,2.387,211.242,193.233,165.518
0.402,21.336,2.306,2.306,211.146,193.173,165.348
0.404,21.553,2.231,2.231,211.043,193.112,165.167
0.406,21.777,2.168,2.168,210.937,193.052,164.980
0.408,22.002,2.119,2.119,210.829,192.996,164.790
0.410,22.222,2.083,2.083,210.723,192.946,164.603
0.412,22.432,2.059,2.059,210.622,192.905,164.425
0.414,22.626,2.047,2.047,210.527,192.874,164.258
0.416,22.799,2.045,2.045,210.441,192.857,164.109
0.418,22.945,2.049,2.049,210.368,192.856,163.982
0.420,23.063,2.053,2.053,210.309,192.872,163.882
0.422,23.157,2.053,2.053,210.262,192.905,163.807
0.424,23.236,2.043,2.043,210.225,192.951,163.755
0.426,23.307,2.019,2.019,210.195,193.007,163.723
0.428,23.377,1.988,1.988,210.167,193.070,163.708
0.430,23.450,1.959,1.959,210.139,193.137,163.708
0.432,23.526,1.941,1.941,210.108,193.205,163.719
0.434,23.604,1.944,1.944,210.069,193.270,163.738
0.436,23.686,1.974,1.974,210.020,193.331,163.763
0.438,23.772,2.023,2.023,209.958,193.383,163.791
0.440,23.865,2.074,2.074,209.879,193.423,163.819
0.442,23.971,2.111,2.111,209.779,193.449,163.844
0.444,24.094,2.117,2.117,209.658,193.458,163.864
0.446,24.237,2.077,2.077,209.515,193.453,163.877
0.448,24.399,1.998,1.998,209.355,193.437,163.883
0.450,24.576,1.899,1.899,209.179,193.414,163.881
0.452,24.766,1.800,1.800,208.991,193.387,163.870
0.454,24.967,1.721,1.721,208.793,193.361,163.850
0.456,25.175,1.680,1.680,208.588,193.339,163.820
0.458,25.388,1.680,1.680,208.379,193.324,163.780
0.460,25.605,1.709,1.709,208.169,193.320,163.728
0.462,25.823,1.752,1.752,207.961,193.330,163.664
0.464,26.043,1.797,1.797,207.756,193.359,163.588
0.465,26.266,1.830,1.830,207.559,193.410,163.498
0.467,26.493,1.849,1.849,207.370,193.483,163.395
0.469,26.726,1.864,1.864,207.190,193.575,163.280
0.471,26.962,1.886,1.886,207.018,193.680,163.155
0.473,27.201,1.924,1.924,206.853,193.791,163.023
0.475,27.439,1.990,1.990,206.696,193.904,162.886
0.477,27.674,2.085,2.085,206.544,194.014,162.744
0.479,27.901,2.197,2.197,206.399,194.114,162.601
0.481,28.119,2.314,2.314,206.258,194.199,162.457
0.483,28.325,2.421,2.421,206.122,194.264,162.317
0.485,28.519,2.505,2.505,205.991,194.303,162.180
0.487,28.702,2.559,2.559,205.863,194.310,162.049
0.489,28.880,2.588,2.588,205.737,194.281,161.926
0.491,29.060,2.600,2.600,205.615,194.214,161.813
0.493,29.247,2.604,2.604,205.495,194.114,161.709
0.495,29.444,2.607,2.607,205.378,193.987,161.615
0.497,29.650,2.616,2.616,205.264,193.837,161.532
0.499,29.863,2.628,2.628,205.153,193.670,161.459
0.501,30.080,2.642,2.642,205.045,193.492,161.397
0.503,30.298,2.655,2.655,204.940,193.308,161.347
0.505,30.513,2.666,2.666,204.838,193.123,161.308
0.507,30.721,2.671,2.671,204.739,192.942,161.280
0.509,30.917,2.670,2.670,204.644,192.771,161.265
0.511,31.098,2.663,2.663,204.552,192.615,161.263
0.513,31.260,2.650,2.650,204.464,192.479,161.273
0.515,31.405,2.631,2.631,204.379,192.364,161.294
0.517,31.535,2.606,2.606,204.297,192.269,161.326
0.519,31.654,2.577,2.577,204.217,192.190,161.365
0.521,31.765,2.548,2.548,204.139,192.125,161.409
0.523,31.869,2.522,2.522,204.062,192.073,161.458
0.525,31.969,2.504,2.504,203.986,192.032,161.508
0.527,32.066,2.495,2.495,203.911,191.998,161.558
0.529,32.160,2.495,2.495,203.835,191.970,161.606
0.531,32.251,2.497,2.497,203.759,191.946,161.649
0.533,32.340,2.497,2.497,203.681,191.923,161.686
0.535,32.427,2.490,2.490,203.602,191.899,161.715
0.536,32.514,2.472,2.472,203.522,191.873,161.734
0.538,32.602,2.444,2.444,203.438,191.844,161.742
0.540,32.693,2.413,2.413,203.353,191.812,161.740
0.542,32.788,2.386,2.386,203.266,191.780,161.727
0.544,32.887,2.370,2.370,203.175,191.746,161.703
0.546,32.991,2.374,2.374,203.083,191.712,161.668
0.548,33.102,2.397,2.397,202.988,191.679,161.622
0.550,33.219,2.435,2.435,202.890,191.647,161.565
0.552,33.344,2.482,2.482,202.790,191.617,161.497
0.554,33.477,2.534,2.534,202.687,191.590,161.417
0.556,33.619,2.586,2.586,202.581,191.566,161.327
0.558,33.769,2.634,2.634,202.472,191.546,161.225
0.560,33.928,2.683,2.683,202.360,191.530,161.113
0.562,34.095,2.736,2.736,202.247,191.519,160.992
0.564,34.266,2.797,2.797,202.133,191.511,160.864
0.566,34.440,2.870,2.870,202.019,191.507,160.733
0.568,34.613,2.956,2.956,201.907,191.505,160.600
0.570,34.783,3.047,3.047,201.799,191.506,160.469
0.572,34.948,3.135,3.135,201.694,191.509,160.341
0.574,35.105,3.212,3.212,201.595,191.514,160.220
0.576,35.251,3.270,3.270,201.503,191.520,160.107
0.578,35.383,3.303,3.303,201.418,191.527,160.006
0.580,35.499,3.316,3.316,201.342,191.535,159.918
0.582,35.597,3.314,3.314,201.277,191.542,159.847
0.584,35.674,3.303,3.303,201.222,191.549,159.793
0.586,35.734,3.287,3.287,201.176,191.556,159.755
0.588,35.779,3.272,3.272,201.138,191.562,159.731
0.590,35.813,3.261,3.261,201.107,191.568,159.721
0.592,35.840,3.256,3.256,201.080,191.574,159.721
0.594,35.866,3.259,3.259,201.057,191.580,159.731
0.596,35.894,3.272,3.272,201.035,191.585,159.749
0.598,35.926,3.298,3.298,201.015,191.590,159.773
0.600,35.962,3.331,3.331,200.993,191.594,159.801
0.602,36.001,3.367,3.367,200.969,191.598,159.832
0.604,36.044,3.398,3.398,200.941,191.602,159.864
0.606,36.090,3.419,3.419,200.908,191.606,159.896
0.607,36.139,3.423,3.423,200.869,191.609,159.926
0.609,36.194,3.414,3.414,200.823,191.613,159.956
0.611,36.254,3.394,3.394,200.772,191.619,159.985
0.613,36.319,3.369,3.369,200.714,191.626,160.014
0.615,36.391,3.345,3.345,200.649,191.636,160.045
0.617,36.470,3.325,3.325,200.578,191.650,160.076
0.619,36.556,3.310,3.310,200.500,191.667,160.109
0.621,36.651,3.301,3.301,200.415,191.689,160.144
0.623,36.753,3.296,3.296,200.324,191.716,160.182
0.625,36.864,3.293,3.293,200.226,191.748,160.224
0.627,36.985,3.291,3.291,200.121,191.788,160.268
0.629,37.116,3.291,3.291,200.009,191.834,160.317
0.631,37.256,3.293,3.293,199.890,191.887,160.370
0.633,37.404,3.298,3.298,199.766,191.945,160.426
0.635,37.558,3.306,3.306,199.637,192.007,160.483
0.637,37.717,3.319,3.319,199.504,192.071,160.542
0.639,37.879,3.336,3.336,199.369,192.135,160.602
0.641,38.042,3.351,3.351,199.231,192.200,160.661
0.643,38.205,3.361,3.361,199.092,192.262,160.719
0.645,38.366,3.360,3.360,198.953,192.321,160.774
0.647,38.524,3.345,3.345,198.814,192.376,160.827
0.649,38.678,3.314,3.314,198.676,192.424,160.877
0.651,38.826,3.271,3.271,198.541,192.465,160.921
0.653,38.967,3.222,3.222,198.409,192.497,160.960
0.655,39.104,3.173,3.173,198.279,192.519,160.994
0.657,39.238,3.129,3.129,198.149,192.532,161.022
0.659,39.371,3.095,3.095,198.017,192.536,161.044
0.661,39.508,3.075,3.075,197.882,192.529,161.061
0.663,39.649,3.074,3.074,197.742,192.512,161.071
0.665,39.798,3.096,3.096,197.595,192.484,161.075
0.667,39.957,3.144,3.144,197.441,192.446,161.073
0.669,40.130,3.221,3.221,197.276,192.396,161.065
0.671,40.317,3.318,3.318,197.099,192.336,161.050
0.673,40.521,3.424,3.424,196.910,192.263,161.029
0.675,40.744,3.529,3.529,196.705,192.179,161.001
0.677,40.987,3.621,3.621,196.484,192.084,160.967
0.679,41.245,3.692,3.692,196.252,191.978,160.927
0.680,41.513,3.748,3.748,196.013,191.866,160.883
0.682,41.787,3.800,3.800,195.770,191.747,160.837
0.684,42.061,3.857,3.857,195.529,191.626,160.789
0.686,42.331,3.930,3.930,195.294,191.503,160.741
0.688,42.590,4.029,4.029,195.070,191.382,160.694
0.690,42.835,4.146,4.146,194.860,191.263,160.650
0.692,43.059,4.269,4.269,194.671,191.150,160.609
0.694,43.259,4.384,4.384,194.504,191.045,160.574
0.696,43.429,4.476,4.476,194.367,190.949,160.544
0.698,43.565,4.534,4.534,194.262,190.865,160.522
0.700,43.667,4.557,4.557,194.191,190.794,160.508
0.702,43.740,4.555,4.555,194.149,190.735,160.500
0.704,43.793,4.540,4.540,194.129,190.686,160.496
0.706,43.832,4.520,4.520,194.127,190.647,160.494
0.708,43.865,4.505,4.505,194.136,190.616,160.491
0.710,43.893,4.500,4.500,194.150,190.591,160.486
0.712,43.919,4.503,4.503,194.164,190.572,160.477
0.714,43.941,4.513,4.513,194.171,190.558,160.462
0.716,43.968,4.528,4.528,194.167,190.546,160.438
0.718,44.010,4.547,4.547,194.145,190.536,160.404
0.720,44.076,4.569,4.569,194.099,190.527,160.358
0.722,44.173,4.595,4.595,194.024,190.517,160.297
0.724,44.302,4.628,4.628,193.919,190.506,160.222
0.726,44.458,4.668,4.668,193.790,190.495,160.136
0.728,44.635,4.717,4.717,193.641,190.485,160.041
0.730,44.826,4.775,4.775,193.478,190.476,159.941
0.732,45.027,4.838,4.838,193.305,190.469,159.839
0.734,45.231,4.904,4.904,193.129,190.466,159.736
0.736,45.432,4.967,4.967,192.954,190.466,159.637
0.738,45.625,5.026,5.026,192.785,190.471,159.544
0.740,45.804,5.076,5.076,192.627,190.481,159.460
0.742,45.963,5.116,5.116,192.487,190.498,159.387
0.744,46.098,5.145,5.145,192.368,190.522,159.329
0.746,46.203,5.161,5.161,192.276,190.553,159.288
0.748,46.284,5.161,5.161,192.210,190.593,159.264
0.750,46.347,5.147,5.147,192.167,190.638,159.254
0.751,46.403,5.123,5.123,192.145,190.690,159.257
0.753,46.461,5.099,5.099,192.140,190.746,159.269
0.755,46.525,5.079,5.079,192.148,190.807,159.288
0.757,46.596,5.073,5.073,192.168,190.871,159.313
0.759,46.673,5.085,5.085,192.195,190.937,159.340
0.761,46.753,5.110,5.110,192.227,191.005,159.368
0.763,46.833,5.138,5.138,192.260,191.073,159.394
0.765,46.911,5.161,5.161,192.291,191.141,159.415
0.767,46.984,5.170,5.170,192.317,191.208,159.431
0.769,47.053,5.156,5.156,192.336,191.274,159.437
0.771,47.118,5.123,5.123,192.347,191.338,159.435
0.773,47.183,5.078,5.078,192.351,191.402,159.423
0.775,47.251,5.027,5.027,192.349,191.466,159.402
0.777,47.324,4.980,4.980,192.342,191.532,159.373
0.779,47.403,4.942,4.942,192.329,191.600,159.334
0.781,47.491,4.913,4.913,192.313,191.671,159.285
0.783,47.587,4.889,4.889,192.293,191.747,159.228
0.785,47.694,4.865,4.865,192.270,191.827,159.162
0.787,47.811,4.837,4.837,192.245,191.913,159.086
0.789,47.939,4.801,4.801,192.218,192.005,159.002
0.791,48.079,4.756,4.756,192.191,192.105,158.908
0.793,48.230,4.706,4.706,192.164,192.213,158.805
0.795,48.393,4.655,4.655,192.137,192.327,158.693
0.797,48.565,4.605,4.605,192.109,192.446,158.571
0.799,48.746,4.561,4.561,192.081,192.568,158.441
0.801,48.934,4.525,4.525,192.053,192.692,158.301
0.803,49.130,4.498,4.498,192.025,192.815,158.153
0.805,49.331,4.480,4.480,191.995,192.937,157.995
