"T","Distance","Radius","FreeRadius","X","Y","Z"
0.000,0.000,0.964,0.964,216.989,182.872,168.288
0.001,0.049,0.955,0.955,217.007,182.853,168.330
0.002,0.093,0.948,0.948,217.024,182.835,168.366
0.004,0.127,0.945,0.945,217.042,182.820,168.392
0.005,0.150,0.950,0.950,217.058,182.809,168.402
0.006,0.170,0.964,0.964,217.073,182.802,168.390
0.007,0.210,0.990,0.990,217.088,182.803,168.353
0.008,0.281,1.031,1.031,217.101,182.811,168.284
0.009,0.389,1.088,1.088,217.113,182.828,168.178
0.011,0.540,1.164,1.164,217.122,182.855,168.030
0.012,0.735,1.258,1.258,217.130,182.893,167.838
0.013,0.966,1.364,1.364,217.137,182.940,167.612
0.014,1.222,1.478,1.478,217.142,182.993,167.362
0.015,1.491,1.593,1.593,217.148,183.050,167.099
0.017,1.762,1.705,1.705,217.153,183.108,166.835
0.018,2.023,1.809,1.809,217.160,183.165,166.579
0.019,2.265,1.899,1.899,217.168,183.218,166.344
0.020,2.474,1.970,1.970,217.177,183.265,166.140
0.021,2.641,2.018,2.018,217.189,183.302,165.977
0.023,2.761,2.046,2.046,217.204,183.331,165.862
0.024,2.839,2.060,2.060,217.224,183.351,165.789
0.025,2.886,2.063,2.063,217.248,183.365,165.752
0.026,2.919,2.061,2.061,217.278,183.375,165.742
0.027,2.960,2.058,2.058,217.316,183.383,165.754
0.028,3.013,2.060,2.060,217.361,183.391,165.781
0.030,3.079,2.072,2.072,217.416,183.402,165.816
0.031,3.155,2.099,2.099,217.481,183.418,165.852
0.032,3.239,2.140,2.140,217.557,183.440,165.882
0.033,3.333,2.195,2.195,217.644,183.468,165.903
0.034,3.436,2.258,2.258,217.740,183.503,165.915
0.036,3.545,2.326,2.326,217.842,183.540,165.920
0.037,3.659,2.396,2.396,217.949,183.579,165.918
0.038,3.774,2.464,2.464,218.058,183.617,165.911
0.039,3.890,2.527,2.527,218.167,183.652,165.900
0.040,4.002,2.581,2.581,218.274,183.683,165.885
0.041,4.109,2.623,2.623,218.376,183.707,165.868
0.043,4.208,2.655,2.655,218.472,183.723,165.849
0.044,4.299,2.678,2.678,218.562,183.730,165.831
0.045,4.385,2.694,2.694,218.646,183.729,165.814
0.046,4.467,2.706,2.706,218.727,183.720,165.801
0.047,4.548,2.715,2.715,218.806,183.707,165.792
0.049,4.630,2.724,2.724,218.886,183.689,165.790
0.050,4.715,2.735,2.735,218.968,183.668,165.795
0.051,4.805,2.749,2.749,219.054,183.645,165.810
0.052,4.903,2.769,2.769,219.145,183.620,165.836
0.053,5.012,2.791,2.791,219.244,183.597,165.875
0.055,5.132,2.817,2.817,219.351,183.573,165.925
0.056,5.258,2.843,2.843,219.461,183.550,165.982
0.057,5.389,2.870,2.870,219.573,183.527,166.045
0.058,5.520,2.896,2.896,219.685,183.503,166.110
0.059,5.648,2.920,2.920,219.793,183.478,166.173
0.060,5.768,2.940,2.940,219.895,183.452,166.231
0.062,5.878,2.957,2.957,219.989,183.424,166.281
0.063,5.975,2.970,2.970,220.071,183.393,166.320
0.064,6.055,2.979,2.979,220.141,183.360,166.345
0.065,6.123,2.986,2.986,220.198,183.325,166.357
0.066,6.182,2.992,2.992,220.244,183.290,166.359
0.068,6.234,2.997,2.997,220.284,183.255,166.355
0.069,6.282,3.001,3.001,220.318,183.222,166.347
0.070,6.326,3.006,3.006,220.350,183.193,166.340
0.071,6.367,3.012,3.012,220.381,183.168,166.336
0.072,6.406,3.020,3.020,220.416,183.149,166.338
0.073,6.450,3.028,3.028,220.456,183.138,166.351
0.075,6.504,3.036,3.036,220.503,183.134,166.377
0.076,6.570,3.042,3.042,220.558,183.138,166.413
0.077,6.646,3.045,3.045,220.620,183.147,166.456
0.078,6.729,3.045,3.045,220.689,183.160,166.501
0.079,6.817,3.040,3.040,220.764,183.175,166.545
0.081,6.907,3.030,3.030,220.844,183.190,166.583
0.082,6.998,3.013,3.013,220.929,183.204,166.611
0.083,7.089,2.990,2.990,221.019,183.213,166.626
0.084,7.183,2.963,2.963,221.112,183.218,166.622
0.085,7.282,2.933,2.933,221.208,183.216,166.598
0.086,7.388,2.901,2.901,221.305,183.207,166.553
0.088,7.501,2.869,2.869,221.398,183.191,166.492
0.089,7.617,2.838,2.838,221.484,183.170,166.417
0.090,7.736,2.810,2.810,221.561,183.143,166.331
0.091,7.854,2.785,2.785,221.625,183.112,166.237
0.092,7.971,2.765,2.765,221.673,183.076,166.137
0.094,8.084,2.745,2.745,221.701,183.036,166.034
0.095,8.196,2.725,2.725,221.707,182.993,165.932
0.096,8.308,2.700,2.700,221.688,182.946,165.831
0.097,8.428,2.668,2.668,221.647,182.898,165.729
0.098,8.559,2.626,2.626,221.591,182.848,165.621
0.100,8.705,2.572,2.572,221.523,182.799,165.503
0.101,8.865,2.502,2.502,221.449,182.749,165.370
0.102,9.041,2.414,2.414,221.373,182.702,165.218
0.103,9.236,2.311,2.311,221.300,182.657,165.043
0.104,9.453,2.198,2.198,221.235,182.615,164.840
0.105,9.697,2.080,2.079,221.183,182.577,164.605
0.107,9.968,1.960,1.960,221.146,182.545,164.338
0.108,10.261,1.845,1.845,221.123,182.517,164.047
0.109,10.565,1.739,1.739,221.112,182.494,163.744
0.110,10.871,1.647,1.647,221.111,182.477,163.439
0.111,11.167,1.574,1.574,221.116,182.464,163.143
0.113,11.444,1.523,1.523,221.127,182.457,162.866
0.114,11.690,1.490,1.490,221.140,182.454,162.620
0.115,11.896,1.473,1.473,221.153,182.457,162.415
0.116,12.050,1.468,1.468,221.165,182.464,162.262
0.117,12.149,1.472,1.472,221.173,182.476,162.164
0.118,12.204,1.482,1.482,221.176,182.490,162.111
0.120,12.228,1.495,1.495,221.174,182.505,162.092
0.121,12.244,1.508,1.508,221.166,182.518,162.096
0.122,12.267,1.517,1.517,221.152,182.528,162.112
0.123,12.295,1.522,1.521,221.130,182.532,162.128
0.124,12.325,1.523,1.523,221.100,182.529,162.134
0.126,12.368,1.521,1.521,221.062,182.517,162.117
0.127,12.441,1.517,1.517,221.015,182.493,162.068
0.128,12.549,1.512,1.511,220.959,182.458,161.983
0.129,12.685,1.506,1.505,220.896,182.416,161.869
0.130,12.841,1.499,1.498,220.830,182.370,161.735
0.132,13.009,1.492,1.492,220.762,182.323,161.590
0.133,13.178,1.487,1.487,220.695,182.280,161.441
0.134,13.339,1.481,1.482,220.632,182.243,161.297
0.135,13.485,1.476,1.478,220.574,182.216,161.166
0.136,13.605,1.472,1.473,220.525,182.203,161.056
0.137,13.694,1.466,1.468,220.486,182.208,160.977
0.139,13.754,1.461,1.462,220.459,182.228,160.928
0.140,13.795,1.454,1.455,220.441,182.256,160.903
0.141,13.826,1.446,1.447,220.431,182.285,160.898
0.142,13.850,1.437,1.436,220.429,182.308,160.904
0.143,13.867,1.427,1.425,220.433,182.317,160.917
0.145,13.886,1.417,1.412,220.440,182.307,160.930
0.146,13.926,1.407,1.401,220.451,182.268,160.938
0.147,14.001,1.397,1.390,220.463,182.194,160.933
0.148,14.119,1.389,1.382,220.476,182.079,160.910
0.149,14.279,1.383,1.377,220.488,181.925,160.869
0.150,14.471,1.379,1.376,220.499,181.742,160.812
0.152,14.686,1.379,1.380,220.511,181.538,160.744
0.153,14.914,1.382,1.389,220.522,181.324,160.668
0.154,15.144,1.388,1.403,220.533,181.108,160.588
0.155,15.367,1.396,1.420,220.543,180.901,160.506
0.156,15.573,1.404,1.439,220.553,180.712,160.426
0.158,15.751,1.412,1.459,220.563,180.550,160.351
0.159,15.894,1.418,1.478,220.573,180.424,160.286
0.160,16.001,1.423,1.496,220.582,180.333,160.229
0.161,16.082,1.424,1.510,220.593,180.272,160.178
0.162,16.142,1.420,1.520,220.605,180.234,160.133
0.164,16.190,1.413,1.526,220.619,180.214,160.091
0.165,16.235,1.403,1.529,220.636,180.207,160.050
0.166,16.281,1.391,1.528,220.656,180.207,160.009
0.167,16.331,1.378,1.525,220.681,180.208,159.965
0.168,16.387,1.367,1.520,220.710,180.204,159.917
0.169,16.452,1.357,1.514,220.744,180.191,159.864
0.171,16.524,1.350,1.507,220.782,180.169,159.807
0.172,16.600,1.347,1.501,220.821,180.139,159.749
0.173,16.678,1.349,1.496,220.861,180.103,159.693
0.174,16.754,1.354,1.490,220.899,180.063,159.640
0.175,16.824,1.362,1.485,220.932,180.021,159.595
0.177,16.886,1.371,1.479,220.960,179.977,159.560
0.178,16.938,1.379,1.473,220.980,179.935,159.538
0.179,16.979,1.385,1.466,220.990,179.896,159.531
0.180,17.015,1.388,1.457,220.989,179.861,159.540
0.181,17.052,1.386,1.446,220.980,179.832,159.561
0.182,17.089,1.378,1.433,220.968,179.810,159.587
0.184,17.119,1.364,1.418,220.955,179.795,159.611
0.185,17.137,1.347,1.403,220.947,179.789,159.626
0.186,17.141,1.328,1.389,220.947,179.792,159.625
0.187,17.170,1.311,1.376,220.959,179.806,159.602
0.188,17.235,1.298,1.368,220.987,179.832,159.550
0.190,17.343,1.290,1.363,221.035,179.871,159.461
0.191,17.497,1.290,1.365,221.105,179.922,159.333
0.192,17.691,1.301,1.373,221.193,179.983,159.172
0.193,17.915,1.324,1.390,221.295,180.050,158.984
0.194,18.159,1.356,1.413,221.405,180.120,158.778
0.195,18.413,1.396,1.442,221.518,180.189,158.561
0.197,18.667,1.439,1.473,221.629,180.255,158.342
0.198,18.913,1.484,1.507,221.733,180.313,158.127
0.199,19.139,1.528,1.541,221.824,180.359,157.926
0.200,19.338,1.567,1.573,221.899,180.392,157.744
0.201,19.503,1.599,1.602,221.953,180.408,157.589
0.203,19.640,1.622,1.627,221.989,180.410,157.458
0.204,19.750,1.634,1.646,222.009,180.401,157.349
0.205,19.840,1.638,1.661,222.016,180.384,157.261
0.206,19.913,1.635,1.672,222.010,180.362,157.192
0.207,19.972,1.628,1.678,221.996,180.338,157.140
0.209,20.021,1.618,1.682,221.975,180.315,157.103
0.210,20.061,1.608,1.684,221.949,180.294,157.079
0.211,20.094,1.598,1.683,221.922,180.280,157.067
0.212,20.123,1.592,1.681,221.894,180.274,157.063
0.213,20.148,1.590,1.678,221.870,180.274,157.062
0.214,20.168,1.593,1.674,221.850,180.279,157.061
0.216,20.185,1.601,1.672,221.837,180.288,157.054
0.217,20.206,1.613,1.672,221.834,180.298,157.036
0.218,20.243,1.630,1.675,221.842,180.310,157.003
0.219,20.302,1.651,1.682,221.865,180.320,156.949
0.220,20.391,1.677,1.694,221.904,180.328,156.869
0.222,20.514,1.706,1.711,221.962,180.333,156.760
0.223,20.672,1.739,1.735,222.038,180.334,156.621
0.224,20.858,1.775,1.766,222.127,180.333,156.459
0.225,21.062,1.813,1.801,222.226,180.332,156.281
0.226,21.277,1.852,1.839,222.330,180.334,156.093
0.227,21.495,1.889,1.877,222.434,180.339,155.901
0.229,21.708,1.923,1.914,222.535,180.351,155.713
0.230,21.909,1.954,1.948,222.628,180.370,155.536
0.231,22.091,1.979,1.976,222.708,180.400,155.375
0.232,22.248,1.997,1.997,222.771,180.441,155.238
0.233,22.379,2.007,2.008,222.818,180.494,155.127
0.235,22.492,2.009,2.012,222.853,180.556,155.039
0.236,22.591,2.005,2.008,222.880,180.624,154.973
0.237,22.681,1.995,1.998,222.903,180.697,154.926
0.238,22.765,1.981,1.984,222.928,180.772,154.897
0.239,22.845,1.963,1.965,222.957,180.846,154.884
0.241,22.927,1.942,1.943,222.996,180.917,154.884
0.242,23.012,1.920,1.920,223.049,180.983,154.895
0.243,23.106,1.897,1.897,223.120,181.041,154.915
0.244,23.210,1.875,1.874,223.207,181.092,154.940
0.245,23.320,1.853,1.853,223.305,181.136,154.962
0.246,23.432,1.835,1.834,223.410,181.176,154.976
0.248,23.544,1.819,1.818,223.516,181.211,154.974
0.249,23.654,1.808,1.807,223.618,181.244,154.951
0.250,23.765,1.801,1.801,223.711,181.276,154.899
0.251,23.887,1.801,1.801,223.790,181.308,154.813
0.252,24.032,1.808,1.808,223.851,181.341,154.685
0.254,24.214,1.823,1.823,223.888,181.377,154.510
0.255,24.433,1.845,1.845,223.902,181.415,154.295
0.256,24.680,1.872,1.872,223.898,181.455,154.051
0.257,24.945,1.902,1.902,223.878,181.495,153.790
0.258,25.218,1.934,1.934,223.845,181.535,153.523
0.259,25.485,1.966,1.966,223.803,181.574,153.261
0.261,25.737,1.997,1.997,223.756,181.612,153.017
0.262,25.962,2.025,2.025,223.706,181.646,152.801
0.263,26.146,2.048,2.048,223.658,181.677,152.625
0.264,26.283,2.066,2.066,223.614,181.704,152.499
0.265,26.374,2.079,2.079,223.576,181.726,152.418
0.267,26.426,2.088,2.088,223.548,181.742,152.378
0.268,26.448,2.093,2.093,223.532,181.752,152.368
0.269,26.464,2.095,2.095,223.529,181.755,152.384
0.270,26.499,2.095,2.094,223.543,181.752,152.417
0.271,26.554,2.093,2.092,223.575,181.740,152.460
0.273,26.627,2.089,2.089,223.628,181.719,152.505
0.274,26.719,2.085,2.086,223.705,181.690,152.546
0.275,26.831,2.081,2.082,223.805,181.652,152.577
0.276,26.960,2.075,2.076,223.926,181.610,152.595
0.277,27.101,2.069,2.070,224.062,181.571,152.601
0.278,27.250,2.061,2.062,224.207,181.540,152.592
0.280,27.401,2.051,2.053,224.355,181.524,152.570
0.281,27.553,2.040,2.042,224.503,181.529,152.533
0.282,27.706,2.027,2.028,224.643,181.561,152.480
0.283,27.865,2.011,2.011,224.771,181.625,152.411
0.284,28.039,1.994,1.992,224.882,181.728,152.325
0.286,28.237,1.975,1.971,224.971,181.873,152.223
0.287,28.459,1.954,1.950,225.040,182.050,152.109
0.288,28.699,1.934,1.928,225.091,182.251,151.987
0.289,28.949,1.913,1.907,225.127,182.463,151.861
0.290,29.198,1.893,1.888,225.150,182.678,151.737
0.291,29.437,1.875,1.871,225.162,182.885,151.618
0.293,29.656,1.859,1.858,225.165,183.074,151.508
0.294,29.842,1.845,1.848,225.161,183.234,151.413
0.295,29.987,1.833,1.842,225.153,183.357,151.337
0.296,30.084,1.821,1.838,225.143,183.436,151.281
0.297,30.143,1.809,1.835,225.133,183.479,151.242
0.299,30.173,1.796,1.831,225.126,183.494,151.218
0.300,30.188,1.780,1.826,225.123,183.488,151.204
0.301,30.208,1.761,1.816,225.127,183.470,151.196
0.302,30.236,1.736,1.803,225.140,183.446,151.192
0.303,30.268,1.705,1.783,225.165,183.426,151.187
0.305,30.308,1.668,1.756,225.203,183.417,151.177
0.306,30.366,1.627,1.724,225.257,183.427,151.160
0.307,30.448,1.582,1.688,225.328,183.458,151.134
0.308,30.554,1.535,1.649,225.415,183.510,151.102
0.309,30.682,1.489,1.608,225.517,183.579,151.066
0.310,30.830,1.445,1.566,225.634,183.661,151.029
0.312,30.993,1.405,1.525,225.764,183.754,150.993
0.313,31.170,1.369,1.486,225.906,183.855,150.962
0.314,31.358,1.341,1.450,226.060,183.960,150.939
0.315,31.555,1.319,1.417,226.225,184.067,150.925
0.316,31.759,1.304,1.388,226.399,184.173,150.924
0.318,31.968,1.294,1.362,226.581,184.276,150.935
0.319,32.177,1.288,1.340,226.764,184.375,150.956
0.320,32.382,1.285,1.322,226.944,184.469,150.985
0.321,32.579,1.286,1.307,227.115,184.558,151.017
0.322,32.761,1.288,1.296,227.274,184.642,151.051
0.323,32.924,1.291,1.289,227.414,184.719,151.084
0.325,33.063,1.294,1.286,227.530,184.789,151.112
0.326,33.173,1.297,1.285,227.618,184.851,151.132
0.327,33.251,1.299,1.286,227.673,184.906,151.143
0.328,33.304,1.300,1.288,227.697,184.954,151.142
0.329,33.351,1.298,1.290,227.695,184.997,151.126
0.331,33.408,1.294,1.291,227.674,185.040,151.095
0.332,33.482,1.286,1.290,227.641,185.086,151.046
0.333,33.575,1.274,1.286,227.603,185.136,150.977
0.334,33.688,1.258,1.278,227.566,185.194,150.888
0.335,33.824,1.238,1.267,227.536,185.263,150.775
0.336,33.985,1.217,1.254,227.520,185.347,150.638
0.338,34.177,1.196,1.241,227.525,185.446,150.474
0.339,34.396,1.176,1.229,227.549,185.560,150.289
0.340,34.634,1.160,1.219,227.589,185.683,150.089
0.341,34.883,1.150,1.213,227.640,185.810,149.881
0.342,35.133,1.147,1.212,227.700,185.936,149.674
0.344,35.375,1.153,1.217,227.762,186.057,149.473
0.345,35.600,1.169,1.230,227.824,186.166,149.287
0.346,35.798,1.193,1.248,227.882,186.259,149.122
0.347,35.959,1.224,1.271,227.930,186.331,148.986
0.348,36.077,1.259,1.298,227.967,186.378,148.884
0.350,36.156,1.296,1.326,227.991,186.403,148.813
0.351,36.206,1.334,1.354,228.003,186.412,148.766
0.352,36.239,1.370,1.381,228.005,186.410,148.733
0.353,36.266,1.403,1.406,227.996,186.403,148.707
0.354,36.298,1.430,1.426,227.980,186.398,148.680
0.355,36.341,1.452,1.443,227.955,186.400,148.645
0.357,36.404,1.471,1.459,227.924,186.415,148.593
0.358,36.496,1.487,1.474,227.887,186.449,148.516
0.359,36.624,1.503,1.490,227.846,186.506,148.409
0.360,36.784,1.521,1.509,227.801,186.583,148.276
0.361,36.967,1.541,1.532,227.753,186.675,148.125
0.363,37.164,1.566,1.561,227.706,186.777,147.963
0.364,37.365,1.598,1.598,227.658,186.883,147.800
0.365,37.561,1.636,1.643,227.612,186.989,147.641
0.366,37.742,1.680,1.695,227.570,187.088,147.496
0.367,37.899,1.727,1.750,227.532,187.176,147.371
0.368,38.023,1.775,1.805,227.499,187.248,147.275
0.370,38.108,1.821,1.858,227.473,187.299,147.213
0.371,38.160,1.864,1.907,227.452,187.332,147.178
0.372,38.188,1.900,1.948,227.436,187.350,147.165
0.373,38.201,1.929,1.980,227.424,187.355,147.164
0.374,38.213,1.947,1.998,227.414,187.351,147.168
0.376,38.227,1.956,2.004,227.405,187.341,147.171
0.377,38.244,1.958,2.002,227.396,187.328,147.165
0.378,38.273,1.955,1.994,227.387,187.315,147.141
0.379,38.323,1.952,1.984,227.375,187.304,147.093
0.380,38.402,1.950,1.974,227.360,187.299,147.016
0.382,38.503,1.954,1.969,227.344,187.298,146.916
0.383,38.622,1.965,1.972,227.326,187.302,146.798
0.384,38.753,1.986,1.986,227.307,187.310,146.669
0.385,38.890,2.020,2.012,227.289,187.321,146.534
0.386,39.027,2.063,2.050,227.272,187.336,146.399
0.387,39.157,2.113,2.095,227.256,187.352,146.271
0.389,39.275,2.165,2.145,227.244,187.372,146.155
0.390,39.375,2.217,2.197,227.234,187.392,146.057
0.391,39.454,2.265,2.247,227.228,187.414,145.982
0.392,39.515,2.306,2.293,227.225,187.436,145.926
0.393,39.559,2.336,2.332,227.222,187.458,145.887
0.395,39.590,2.352,2.359,227.220,187.477,145.864
0.396,39.610,2.354,2.376,227.216,187.495,145.853
0.397,39.626,2.344,2.383,227.210,187.509,145.853
0.398,39.643,2.326,2.383,227.199,187.520,145.861
0.399,39.664,2.303,2.377,227.184,187.525,145.875
0.400,39.691,2.278,2.366,227.163,187.524,145.892
0.402,39.723,2.253,2.354,227.137,187.518,145.909
0.403,39.752,2.231,2.340,227.115,187.506,145.922
0.404,39.773,2.216,2.328,227.102,187.489,145.926
0.405,39.797,2.211,2.319,227.105,187.467,145.916
0.406,39.844,2.214,2.314,227.133,187.442,145.887
0.408,39.926,2.226,2.313,227.191,187.414,145.836
0.409,40.055,2.246,2.317,227.287,187.384,145.756
0.410,40.237,2.273,2.327,227.427,187.352,145.645
0.411,40.482,2.307,2.344,227.619,187.318,145.496
0.412,40.785,2.348,2.368,227.857,187.283,145.313
0.414,41.130,2.394,2.400,228.129,187.248,145.102
0.415,41.502,2.446,2.442,228.420,187.211,144.874
0.416,41.884,2.502,2.491,228.716,187.173,144.635
0.417,42.259,2.560,2.546,229.001,187.135,144.394
0.418,42.613,2.619,2.604,229.263,187.094,144.159
0.419,42.929,2.677,2.663,229.486,187.053,143.939
0.421,43.193,2.732,2.721,229.656,187.011,143.742
0.422,43.394,2.783,2.776,229.760,186.967,143.576
0.423,43.540,2.828,2.824,229.799,186.922,143.442
0.424,43.654,2.865,2.864,229.785,186.878,143.339
0.425,43.757,2.892,2.894,229.729,186.836,143.263
0.427,43.864,2.911,2.915,229.643,186.797,143.212
0.428,43.977,2.923,2.927,229.540,186.762,143.184
0.429,44.092,2.928,2.932,229.429,186.732,143.176
0.430,44.200,2.929,2.932,229.324,186.708,143.185
0.431,44.293,2.926,2.929,229.236,186.693,143.210
0.432,44.364,2.921,2.922,229.175,186.685,143.246
0.434,44.419,2.914,2.915,229.142,186.685,143.290
0.435,44.464,2.908,2.908,229.130,186.689,143.333
0.436,44.500,2.902,2.901,229.134,186.695,143.369
0.437,44.526,2.895,2.894,229.147,186.699,143.390
0.438,44.544,2.885,2.884,229.165,186.700,143.391
0.440,44.577,2.873,2.872,229.181,186.693,143.363
0.441,44.643,2.856,2.856,229.190,186.676,143.300
0.442,44.752,2.834,2.833,229.186,186.648,143.194
0.443,44.913,2.805,2.805,229.163,186.604,143.042
0.444,45.120,2.768,2.768,229.122,186.547,142.847
0.445,45.365,2.722,2.722,229.064,186.480,142.618
0.447,45.637,2.669,2.669,228.991,186.405,142.367
0.448,45.929,2.611,2.611,228.905,186.326,142.100
0.449,46.229,2.549,2.550,228.806,186.245,141.829
0.450,46.529,2.487,2.487,228.697,186.164,141.561
0.451,46.819,2.425,2.426,228.579,186.088,141.307
0.453,47.092,2.367,2.367,228.454,186.018,141.075
0.454,47.340,2.314,2.314,228.324,185.957,140.873
0.455,47.564,2.269,2.269,228.191,185.907,140.699
0.456,47.767,2.232,2.232,228.060,185.866,140.550
0.457,47.948,2.202,2.202,227.933,185.836,140.423
0.459,48.110,2.178,2.178,227.816,185.817,140.314
0.460,48.252,2.159,2.159,227.710,185.809,140.220
0.461,48.375,2.144,2.143,227.619,185.812,140.136
0.462,48.481,2.131,2.131,227.547,185.828,140.061
0.463,48.572,2.119,2.119,227.498,185.855,139.989
0.464,48.655,2.108,2.108,227.474,185.894,139.920
0.466,48.738,2.097,2.097,227.470,185.942,139.852
0.467,48.824,2.084,2.084,227.483,185.997,139.787
0.468,48.913,2.071,2.071,227.508,186.055,139.725
0.469,49.001,2.058,2.058,227.542,186.113,139.668
0.470,49.086,2.046,2.046,227.581,186.168,139.615
0.472,49.165,2.034,2.034,227.618,186.217,139.567
0.473,49.232,2.024,2.024,227.652,186.258,139.527
0.474,49.283,2.015,2.015,227.677,186.287,139.493
0.475,49.317,2.008,2.008,227.691,186.304,139.466
0.476,49.339,2.003,2.003,227.696,186.310,139.446
0.477,49.353,2.000,2.000,227.695,186.309,139.432
0.479,49.364,1.999,1.999,227.688,186.305,139.424
0.480,49.375,1.999,1.999,227.679,186.300,139.420
0.481,49.384,2.000,2.000,227.670,186.298,139.421
0.482,49.393,2.001,2.001,227.663,186.302,139.424
0.483,49.407,2.003,2.003,227.661,186.315,139.430
