"T","Distance","Radius","FreeRadius","X","Y","Z"
0.000,0.000,0.915,0.915,167.651,160.813,178.903
0.002,0.062,0.937,0.938,167.653,160.807,178.841
0.003,0.122,0.959,0.960,167.654,160.799,178.781
0.005,0.178,0.981,0.982,167.655,160.785,178.727
0.006,0.230,1.003,1.003,167.654,160.763,178.681
0.008,0.279,1.024,1.025,167.651,160.730,178.645
0.009,0.331,1.045,1.046,167.646,160.683,178.622
0.011,0.395,1.066,1.066,167.638,160.620,178.615
0.012,0.479,1.088,1.087,167.627,160.538,178.626
0.014,0.589,1.114,1.113,167.612,160.433,178.657
0.015,0.731,1.148,1.146,167.593,160.304,178.713
0.017,0.907,1.193,1.191,167.570,160.149,178.793
0.018,1.112,1.252,1.251,167.545,159.971,178.892
0.020,1.337,1.330,1.330,167.521,159.778,179.004
0.021,1.573,1.428,1.429,167.499,159.575,179.122
0.023,1.810,1.542,1.545,167.483,159.369,179.239
0.025,2.042,1.665,1.670,167.476,159.164,179.348
0.026,2.260,1.789,1.795,167.479,158.968,179.441
0.028,2.456,1.907,1.913,167.495,158.786,179.512
0.029,2.626,2.012,2.015,167.528,158.624,179.555
0.031,2.772,2.096,2.095,167.579,158.488,179.561
0.032,2.903,2.156,2.147,167.651,158.383,179.527
0.034,3.039,2.194,2.178,167.738,158.306,179.457
0.035,3.187,2.215,2.194,167.835,158.251,179.360
0.037,3.345,2.223,2.200,167.935,158.211,179.244
0.038,3.506,2.223,2.204,168.033,158.183,179.119
0.040,3.663,2.218,2.211,168.121,158.158,178.992
0.041,3.805,2.213,2.227,168.194,158.132,178.873
0.043,3.925,2.210,2.254,168.245,158.100,178.769
0.044,4.019,2.212,2.291,168.269,158.055,178.690
0.046,4.098,2.221,2.334,168.258,157.991,178.644
0.047,4.198,2.239,2.383,168.209,157.904,178.639
0.049,4.340,2.267,2.435,168.123,157.796,178.671
0.051,4.521,2.309,2.488,168.008,157.673,178.737
0.052,4.735,2.364,2.541,167.868,157.539,178.830
0.054,4.975,2.431,2.593,167.711,157.400,178.946
0.055,5.231,2.506,2.645,167.541,157.261,179.079
0.057,5.496,2.587,2.698,167.366,157.126,179.223
0.058,5.758,2.669,2.751,167.190,157.001,179.373
0.060,6.011,2.750,2.804,167.020,156.892,179.524
0.061,6.245,2.827,2.859,166.862,156.802,179.671
0.063,6.453,2.897,2.913,166.721,156.736,179.809
0.064,6.635,2.960,2.966,166.597,156.694,179.936
0.066,6.795,3.015,3.016,166.489,156.672,180.052
0.067,6.936,3.062,3.061,166.395,156.666,180.158
0.069,7.062,3.100,3.099,166.313,156.673,180.253
0.070,7.174,3.129,3.129,166.242,156.690,180.338
0.072,7.275,3.148,3.148,166.179,156.713,180.412
0.074,7.364,3.158,3.159,166.123,156.738,180.476
0.075,7.442,3.163,3.164,166.072,156.763,180.531
0.077,7.510,3.164,3.165,166.024,156.784,180.574
0.078,7.569,3.163,3.163,165.978,156.798,180.608
0.080,7.621,3.163,3.163,165.933,156.805,180.633
0.081,7.667,3.165,3.165,165.890,156.805,180.651
0.083,7.709,3.171,3.171,165.850,156.800,180.661
0.084,7.747,3.181,3.181,165.813,156.791,180.667
0.086,7.783,3.193,3.193,165.780,156.778,180.669
0.087,7.816,3.207,3.207,165.751,156.764,180.669
0.089,7.845,3.221,3.221,165.726,156.748,180.667
0.090,7.869,3.236,3.236,165.707,156.732,180.666
0.092,7.889,3.249,3.249,165.694,156.717,180.667
0.093,7.904,3.262,3.262,165.687,156.705,180.670
0.095,7.916,3.272,3.272,165.686,156.695,180.676
0.096,7.928,3.280,3.280,165.690,156.687,180.684
0.098,7.942,3.286,3.286,165.697,156.682,180.695
0.100,7.958,3.290,3.290,165.707,156.679,180.708
0.101,7.976,3.290,3.290,165.718,156.679,180.722
0.103,7.996,3.287,3.287,165.730,156.682,180.737
0.104,8.017,3.281,3.281,165.742,156.688,180.753
0.106,8.038,3.273,3.273,165.752,156.696,180.769
0.107,8.059,3.262,3.262,165.760,156.707,180.786
0.109,8.080,3.250,3.250,165.764,156.720,180.802
0.110,8.104,3.236,3.236,165.764,156.737,180.819
0.112,8.132,3.221,3.221,165.759,156.757,180.838
0.113,8.166,3.204,3.204,165.748,156.780,180.860
0.115,8.209,3.185,3.185,165.730,156.806,180.888
0.116,8.262,3.162,3.162,165.704,156.837,180.923
0.118,8.326,3.133,3.133,165.670,156.871,180.967
0.119,8.404,3.098,3.098,165.628,156.909,181.020
0.121,8.498,3.054,3.054,165.575,156.951,181.085
0.123,8.608,3.002,3.002,165.512,156.998,181.163
0.124,8.738,2.943,2.943,165.438,157.049,181.255
0.126,8.884,2.880,2.880,165.354,157.104,181.362
0.127,9.044,2.816,2.816,165.263,157.164,181.480
0.129,9.215,2.755,2.755,165.169,157.227,181.607
0.130,9.392,2.700,2.700,165.074,157.293,181.742
0.132,9.573,2.653,2.653,164.981,157.362,181.881
0.133,9.755,2.616,2.616,164.894,157.434,182.023
0.135,9.934,2.587,2.587,164.815,157.508,182.165
0.136,10.107,2.565,2.565,164.747,157.583,182.306
0.138,10.272,2.547,2.547,164.694,157.660,182.442
0.139,10.428,2.531,2.531,164.658,157.738,182.572
0.141,10.576,2.516,2.516,164.638,157.816,182.695
0.142,10.717,2.499,2.499,164.631,157.896,182.812
0.144,10.855,2.479,2.479,164.633,157.978,182.923
0.145,10.990,2.457,2.457,164.641,158.062,183.028
0.147,11.122,2.433,2.433,164.652,158.147,183.129
0.149,11.253,2.407,2.407,164.661,158.235,183.225
0.150,11.383,2.378,2.378,164.664,158.326,183.318
0.152,11.513,2.347,2.347,164.660,158.421,183.407
0.153,11.644,2.314,2.314,164.643,158.518,183.494
0.155,11.780,2.281,2.281,164.610,158.619,183.578
0.156,11.921,2.250,2.250,164.562,158.723,183.661
0.158,12.065,2.223,2.223,164.503,158.827,183.742
0.159,12.211,2.201,2.201,164.435,158.929,183.820
0.161,12.354,2.186,2.186,164.364,159.027,183.896
0.162,12.491,2.181,2.181,164.292,159.118,183.970
0.164,12.620,2.184,2.184,164.224,159.200,184.041
0.165,12.737,2.194,2.194,164.162,159.272,184.110
0.167,12.839,2.208,2.208,164.112,159.330,184.177
0.168,12.923,2.224,2.224,164.076,159.372,184.240
0.170,12.991,2.238,2.238,164.058,159.397,184.301
0.172,13.050,2.248,2.248,164.059,159.403,184.359
0.173,13.108,2.252,2.252,164.077,159.395,184.415
0.175,13.173,2.250,2.250,164.108,159.375,184.467
0.176,13.244,2.242,2.242,164.149,159.345,184.517
0.178,13.322,2.230,2.230,164.199,159.309,184.564
0.179,13.403,2.215,2.215,164.255,159.268,184.608
0.181,13.486,2.197,2.197,164.313,159.227,184.649
0.182,13.567,2.177,2.177,164.372,159.187,184.688
0.184,13.642,2.156,2.156,164.428,159.151,184.723
0.185,13.708,2.135,2.135,164.478,159.122,184.756
0.187,13.766,2.116,2.116,164.522,159.101,184.786
0.188,13.815,2.099,2.099,164.559,159.086,184.815
0.190,13.857,2.087,2.087,164.589,159.075,184.842
0.191,13.895,2.080,2.080,164.613,159.066,184.870
0.193,13.929,2.078,2.078,164.629,159.057,184.899
0.194,13.962,2.082,2.082,164.639,159.047,184.929
0.196,13.998,2.089,2.089,164.642,159.034,184.962
0.198,14.038,2.095,2.095,164.638,159.015,184.998
0.199,14.087,2.099,2.099,164.627,158.989,185.038
0.201,14.147,2.097,2.097,164.609,158.955,185.082
0.202,14.217,2.088,2.088,164.586,158.911,185.133
0.204,14.297,2.070,2.070,164.561,158.861,185.190
0.205,14.384,2.043,2.043,164.537,158.808,185.255
0.207,14.477,2.010,2.010,164.517,158.754,185.327
0.208,14.574,1.972,1.972,164.505,158.702,185.408
0.210,14.676,1.930,1.930,164.505,158.655,185.499
0.211,14.785,1.887,1.887,164.519,158.615,185.600
0.213,14.906,1.843,1.843,164.550,158.586,185.712
0.214,15.042,1.802,1.802,164.603,158.569,185.836
0.216,15.199,1.766,1.766,164.681,158.568,185.972
0.217,15.379,1.738,1.738,164.783,158.584,186.121
0.219,15.580,1.721,1.721,164.905,158.614,186.278
0.221,15.797,1.717,1.717,165.040,158.655,186.442
0.222,16.022,1.731,1.731,165.184,158.706,186.608
0.224,16.251,1.763,1.763,165.331,158.764,186.774
0.225,16.478,1.811,1.811,165.475,158.827,186.937
0.227,16.695,1.867,1.867,165.611,158.891,187.093
0.228,16.898,1.927,1.927,165.734,158.955,187.241
0.230,17.079,1.984,1.984,165.838,159.017,187.376
0.231,17.233,2.033,2.033,165.918,159.073,187.495
0.233,17.360,2.067,2.067,165.972,159.123,187.599
0.234,17.464,2.085,2.085,166.002,159.165,187.689
0.236,17.551,2.088,2.088,166.014,159.201,187.767
0.237,17.627,2.080,2.080,166.012,159.229,187.838
0.239,17.697,2.062,2.062,165.998,159.251,187.903
0.240,17.765,2.038,2.038,165.978,159.265,187.966
0.242,17.833,2.011,2.011,165.956,159.273,188.030
0.243,17.903,1.984,1.984,165.935,159.273,188.097
0.245,17.978,1.958,1.958,165.919,159.266,188.170
0.247,18.061,1.934,1.934,165.914,159.251,188.252
0.248,18.156,1.916,1.916,165.920,159.230,188.344
0.250,18.260,1.903,1.903,165.936,159.203,188.443
0.251,18.371,1.898,1.898,165.961,159.172,188.546
0.253,18.485,1.902,1.902,165.992,159.138,188.651
0.254,18.601,1.915,1.915,166.027,159.102,188.755
0.256,18.713,1.936,1.936,166.064,159.065,188.854
0.257,18.818,1.962,1.962,166.102,159.030,188.946
0.259,18.913,1.991,1.991,166.139,158.996,189.027
0.260,18.995,2.020,2.020,166.172,158.966,189.095
0.262,19.059,2.047,2.047,166.200,158.941,189.147
0.263,19.104,2.070,2.070,166.221,158.921,189.181
0.265,19.133,2.088,2.088,166.237,158.905,189.200
0.266,19.152,2.100,2.100,166.248,158.891,189.206
0.268,19.167,2.109,2.109,166.255,158.878,189.201
0.270,19.187,2.113,2.113,166.261,158.864,189.188
0.271,19.211,2.115,2.115,166.265,158.848,189.170
0.273,19.240,2.114,2.114,166.269,158.828,189.150
0.274,19.274,2.111,2.111,166.273,158.803,189.129
0.276,19.312,2.106,2.106,166.280,158.770,189.110
0.277,19.356,2.098,2.098,166.290,158.729,189.096
0.279,19.408,2.086,2.086,166.303,158.679,189.089
0.280,19.469,2.071,2.071,166.318,158.621,189.088
0.282,19.537,2.051,2.051,166.333,158.555,189.095
0.283,19.611,2.027,2.027,166.345,158.483,189.108
0.285,19.691,1.997,1.997,166.354,158.406,189.129
0.286,19.776,1.963,1.963,166.356,158.326,189.157
0.288,19.866,1.926,1.926,166.350,158.243,189.192
0.289,19.962,1.886,1.886,166.334,158.158,189.234
0.291,20.064,1.845,1.845,166.306,158.074,189.283
0.292,20.173,1.802,1.802,166.265,157.990,189.340
0.294,20.291,1.758,1.758,166.209,157.908,189.403
0.296,20.417,1.715,1.715,166.142,157.827,189.473
0.297,20.549,1.673,1.673,166.070,157.746,189.548
0.299,20.685,1.632,1.632,165.996,157.663,189.627
0.300,20.822,1.593,1.593,165.925,157.578,189.709
0.302,20.960,1.556,1.556,165.862,157.490,189.794
0.303,21.095,1.523,1.523,165.812,157.398,189.879
0.305,21.230,1.494,1.494,165.779,157.299,189.965
0.306,21.365,1.468,1.468,165.767,157.195,190.049
0.308,21.505,1.446,1.446,165.782,157.082,190.132
0.309,21.656,1.429,1.429,165.825,156.962,190.212
0.311,21.819,1.417,1.417,165.891,156.835,190.291
0.312,21.992,1.409,1.409,165.974,156.705,190.368
0.314,22.171,1.406,1.406,166.067,156.573,190.445
0.315,22.351,1.408,1.408,166.164,156.442,190.522
0.317,22.529,1.415,1.415,166.258,156.313,190.601
0.319,22.699,1.427,1.427,166.343,156.190,190.681
0.320,22.857,1.443,1.443,166.411,156.074,190.764
0.322,23.002,1.464,1.464,166.457,155.968,190.851
0.323,23.134,1.489,1.489,166.474,155.874,190.943
0.325,23.260,1.519,1.519,166.457,155.793,191.039
0.326,23.388,1.551,1.551,166.410,155.726,191.137
0.328,23.521,1.584,1.584,166.339,155.672,191.235
0.329,23.659,1.616,1.616,166.249,155.629,191.331
0.331,23.800,1.646,1.646,166.146,155.597,191.421
0.332,23.940,1.672,1.672,166.035,155.576,191.503
0.334,24.075,1.693,1.693,165.921,155.564,191.575
0.335,24.200,1.707,1.707,165.810,155.560,191.633
0.337,24.311,1.717,1.717,165.707,155.565,191.675
0.338,24.404,1.724,1.724,165.619,155.577,191.699
0.340,24.476,1.730,1.730,165.549,155.595,191.703
0.342,24.533,1.735,1.735,165.497,155.617,191.692
0.343,24.579,1.743,1.743,165.462,155.637,191.670
0.345,24.615,1.753,1.753,165.443,155.654,191.645
0.346,24.640,1.765,1.764,165.439,155.663,191.622
0.348,24.659,1.776,1.775,165.449,155.661,191.605
0.349,24.686,1.783,1.782,165.470,155.645,191.602
0.351,24.737,1.784,1.783,165.503,155.611,191.618
0.352,24.818,1.775,1.775,165.546,155.555,191.659
0.354,24.937,1.755,1.755,165.597,155.474,191.730
0.355,25.099,1.723,1.723,165.656,155.366,191.835
0.357,25.297,1.682,1.683,165.717,155.233,191.970
0.358,25.523,1.639,1.641,165.776,155.081,192.127
0.360,25.768,1.599,1.600,165.827,154.914,192.297
0.361,26.021,1.566,1.567,165.866,154.737,192.475
0.363,26.276,1.546,1.547,165.888,154.555,192.651
0.364,26.525,1.545,1.544,165.887,154.371,192.819
0.366,26.762,1.562,1.560,165.859,154.192,192.971
0.368,26.983,1.596,1.592,165.798,154.021,193.099
0.369,27.193,1.641,1.636,165.699,153.864,193.196
0.371,27.399,1.696,1.691,165.560,153.724,193.255
0.372,27.612,1.756,1.753,165.388,153.602,193.283
0.374,27.833,1.819,1.819,165.193,153.498,193.287
0.375,28.056,1.881,1.886,164.988,153.411,193.275
0.377,28.274,1.939,1.951,164.783,153.340,193.257
0.378,28.476,1.992,2.009,164.588,153.286,193.239
0.380,28.653,2.037,2.056,164.417,153.246,193.232
0.381,28.793,2.070,2.088,164.278,153.222,193.242
0.383,28.895,2.091,2.101,164.185,153.213,193.280
0.384,28.976,2.097,2.090,164.147,153.217,193.352
0.386,29.094,2.087,2.058,164.173,153.234,193.466
0.387,29.271,2.067,2.015,164.259,153.258,193.618
0.389,29.500,2.041,1.972,164.393,153.281,193.803
0.391,29.771,2.014,1.942,164.562,153.296,194.013
0.392,30.071,1.990,1.934,164.758,153.294,194.242
0.394,30.391,1.975,1.960,164.967,153.269,194.481
0.395,30.719,1.972,2.030,165.179,153.212,194.726
0.397,31.050,1.985,2.141,165.383,153.115,194.968
0.398,31.380,2.014,2.281,165.567,152.972,195.202
0.400,31.712,2.062,2.441,165.720,152.774,195.419
0.401,32.055,2.129,2.610,165.833,152.516,195.615
0.403,32.420,2.219,2.776,165.905,152.203,195.788
0.404,32.807,2.331,2.930,165.943,151.849,195.939
0.406,33.212,2.466,3.065,165.951,151.465,196.070
0.407,33.629,2.618,3.183,165.936,151.064,196.183
0.409,34.047,2.782,3.286,165.902,150.658,196.278
0.410,34.456,2.952,3.379,165.855,150.260,196.357
0.412,34.844,3.121,3.464,165.800,149.881,196.422
0.413,35.199,3.284,3.544,165.744,149.535,196.474
0.415,35.508,3.435,3.624,165.690,149.233,196.513
0.417,35.761,3.571,3.702,165.644,148.986,196.543
0.418,35.957,3.691,3.777,165.608,148.794,196.563
0.420,36.104,3.793,3.846,165.580,148.650,196.576
0.421,36.208,3.879,3.907,165.559,148.549,196.582
0.423,36.276,3.946,3.957,165.544,148.483,196.584
0.424,36.314,3.994,3.995,165.534,148.445,196.582
0.426,36.331,4.024,4.018,165.529,148.431,196.578
0.427,36.336,4.037,4.028,165.527,148.432,196.573
0.429,36.348,4.038,4.029,165.527,148.444,196.569
0.430,36.363,4.031,4.024,165.528,148.458,196.567
0.432,36.375,4.019,4.015,165.529,148.470,196.568
0.433,36.383,4.007,4.006,165.531,148.477,196.572
0.435,36.391,3.998,3.999,165.532,148.480,196.580
0.436,36.401,3.995,3.997,165.532,148.480,196.590
0.438,36.413,3.995,3.997,165.531,148.477,196.601
0.440,36.427,3.998,4.000,165.529,148.473,196.615
0.441,36.443,4.002,4.004,165.526,148.468,196.629
0.443,36.459,4.008,4.008,165.521,148.462,196.644
0.444,36.477,4.012,4.012,165.515,148.456,196.659
0.446,36.494,4.014,4.014,165.506,148.451,196.673
0.447,36.512,4.014,4.014,165.495,148.448,196.686
0.449,36.531,4.011,4.011,165.481,148.445,196.700
0.450,36.553,4.005,4.005,165.465,148.443,196.714
0.452,36.580,3.995,3.995,165.445,148.439,196.732
0.453,36.612,3.981,3.981,165.422,148.432,196.754
0.455,36.652,3.963,3.963,165.395,148.422,196.781
0.456,36.702,3.940,3.940,165.363,148.406,196.816
0.458,36.763,3.913,3.914,165.327,148.384,196.859
0.459,36.836,3.885,3.885,165.286,148.354,196.913
0.461,36.925,3.856,3.856,165.240,148.315,196.978
0.462,37.031,3.827,3.827,165.188,148.266,197.056
0.464,37.153,3.800,3.800,165.131,148.207,197.147
0.466,37.289,3.776,3.776,165.069,148.139,197.247
0.467,37.436,3.755,3.755,165.004,148.064,197.355
0.469,37.592,3.738,3.738,164.935,147.983,197.470
0.470,37.755,3.725,3.725,164.863,147.897,197.587
0.472,37.921,3.716,3.715,164.790,147.807,197.706
0.473,38.089,3.710,3.710,164.715,147.714,197.824
0.475,38.255,3.708,3.708,164.639,147.620,197.939
0.476,38.418,3.710,3.710,164.564,147.526,198.048
0.478,38.575,3.715,3.715,164.489,147.434,198.150
0.479,38.724,3.722,3.722,164.416,147.343,198.244
0.481,38.865,3.731,3.731,164.345,147.256,198.330
0.482,38.998,3.741,3.741,164.277,147.174,198.408
0.484,39.121,3.752,3.752,164.212,147.097,198.479
0.485,39.232,3.761,3.761,164.152,147.027,198.542
0.487,39.333,3.770,3.770,164.098,146.965,198.599
0.489,39.421,3.778,3.778,164.049,146.912,198.649
0.490,39.495,3.785,3.785,164.006,146.869,198.693
0.492,39.556,3.792,3.792,163.972,146.837,198.731
0.493,39.602,3.797,3.797,163.945,146.818,198.763
0.495,39.635,3.802,3.802,163.926,146.809,198.789
0.496,39.660,3.805,3.805,163.913,146.809,198.810
0.498,39.677,3.808,3.808,163.905,146.813,198.824
0.499,39.687,3.809,3.809,163.900,146.818,198.832
0.501,39.692,3.807,3.807,163.896,146.821,198.834
0.502,39.699,3.802,3.802,163.893,146.818,198.828
0.504,39.717,3.794,3.794,163.887,146.807,198.816
0.505,39.748,3.782,3.782,163.879,146.784,198.796
0.507,39.797,3.765,3.765,163.867,146.745,198.769
0.508,39.867,3.746,3.746,163.848,146.688,198.735
0.510,39.956,3.726,3.726,163.822,146.613,198.694
0.511,40.060,3.707,3.707,163.787,146.525,198.652
0.513,40.173,3.690,3.690,163.743,146.428,198.612
0.515,40.291,3.676,3.676,163.688,146.329,198.578
0.516,40.411,3.668,3.668,163.622,146.232,198.554
0.518,40.531,3.664,3.664,163.543,146.142,198.545
0.519,40.652,3.663,3.663,163.451,146.064,198.554
0.521,40.779,3.664,3.664,163.345,146.002,198.585
0.522,40.920,3.663,3.663,163.222,145.963,198.643
0.524,41.085,3.659,3.659,163.084,145.951,198.731
0.525,41.279,3.651,3.651,162.930,145.967,198.849
0.527,41.500,3.637,3.637,162.765,146.006,198.991
0.528,41.741,3.618,3.618,162.593,146.063,199.150
0.530,41.995,3.596,3.596,162.418,146.133,199.320
0.531,42.254,3.573,3.573,162.245,146.212,199.496
0.533,42.509,3.552,3.552,162.077,146.295,199.670
0.534,42.753,3.533,3.533,161.919,146.377,199.836
0.536,42.975,3.518,3.518,161.776,146.452,199.988
0.538,43.169,3.510,3.510,161.650,146.518,200.120
0.539,43.325,3.506,3.506,161.547,146.568,200.226
0.541,43.441,3.506,3.506,161.468,146.601,200.304
0.542,43.523,3.510,3.510,161.410,146.622,200.359
0.544,43.578,3.516,3.516,161.370,146.635,200.395
0.545,43.612,3.525,3.525,161.347,146.644,200.417
0.547,43.632,3.536,3.536,161.337,146.654,200.431
0.548,43.650,3.548,3.548,161.337,146.668,200.441
0.550,43.678,3.563,3.563,161.345,146.692,200.453
0.551,43.721,3.580,3.580,161.358,146.730,200.472
0.553,43.786,3.599,3.599,161.374,146.785,200.501
0.554,43.878,3.622,3.622,161.389,146.863,200.547
0.556,43.997,3.648,3.648,161.403,146.963,200.611
0.557,44.139,3.677,3.677,161.415,147.081,200.689
0.559,44.297,3.709,3.709,161.424,147.212,200.778
0.560,44.465,3.743,3.743,161.432,147.349,200.872
0.562,44.634,3.777,3.777,161.437,147.488,200.969
0.564,44.799,3.810,3.810,161.440,147.623,201.064
0.565,44.954,3.842,3.842,161.441,147.749,201.154
0.567,45.090,3.871,3.871,161.440,147.860,201.233
0.568,45.202,3.897,3.897,161.436,147.950,201.299
0.570,45.283,3.919,3.919,161.431,148.015,201.348
0.571,45.331,3.936,3.936,161.423,148.053,201.377
0.573,45.353,3.949,3.949,161.415,148.068,201.390
0.574,45.361,3.956,3.956,161.407,148.065,201.390
0.576,45.379,3.957,3.957,161.400,148.051,201.382
0.577,45.404,3.951,3.951,161.395,148.030,201.368
0.579,45.431,3.943,3.943,161.394,148.009,201.353
0.580,45.453,3.934,3.934,161.397,147.991,201.339
0.582,45.467,3.928,3.928,161.405,147.984,201.331
0.583,45.484,3.929,3.929,161.420,147.991,201.332
0.585,45.522,3.940,3.940,161.443,148.019,201.345
0.587,45.587,3.965,3.965,161.473,148.069,201.372
0.588,45.674,4.001,4.001,161.510,148.138,201.409
0.590,45.776,4.044,4.044,161.551,148.221,201.453
0.591,45.887,4.088,4.088,161.595,148.312,201.499
0.593,46.002,4.126,4.126,161.641,148.408,201.544
0.594,46.114,4.154,4.154,161.685,148.502,201.584
0.596,46.217,4.165,4.165,161.728,148.590,201.615
0.597,46.306,4.154,4.154,161.767,148.668,201.633
0.599,46.377,4.126,4.126,161.801,148.731,201.634
0.600,46.430,4.090,4.090,161.827,148.773,201.615
0.602,46.478,4.052,4.052,161.845,148.792,201.574
0.603,46.532,4.021,4.021,161.853,148.796,201.521
0.605,46.589,4.004,4.004,161.851,148.789,201.465
0.606,46.642,4.010,4.010,161.838,148.779,201.414
0.608,46.687,4.041,4.041,161.812,148.772,201.378
0.609,46.727,4.088,4.088,161.773,148.774,201.367
0.611,46.787,4.142,4.142,161.721,148.791,201.388
0.613,46.888,4.193,4.193,161.653,148.831,201.453
0.614,47.047,4.230,4.230,161.570,148.900,201.569
0.616,47.275,4.244,4.244,161.470,149.004,201.745
0.617,47.578,4.226,4.226,161.355,149.146,201.987
0.619,47.943,4.178,4.178,161.226,149.320,202.282
0.620,48.356,4.108,4.108,161.089,149.517,202.617
0.622,48.800,4.026,4.026,160.946,149.730,202.980
0.623,49.260,3.942,3.942,160.803,149.950,203.357
