"T","Distance","Radius","FreeRadius","X","Y","Z"
0.000,0.000,1.415,1.415,220.626,192.844,175.782
0.001,0.043,1.393,1.393,220.622,192.845,175.825
0.002,0.083,1.372,1.372,220.619,192.846,175.865
0.004,0.118,1.351,1.351,220.617,192.848,175.900
0.005,0.147,1.332,1.332,220.617,192.852,175.928
0.006,0.167,1.316,1.316,220.619,192.858,175.947
0.007,0.180,1.302,1.302,220.625,192.868,175.954
0.008,0.198,1.291,1.291,220.634,192.882,175.947
0.010,0.230,1.284,1.284,220.647,192.899,175.924
0.011,0.281,1.282,1.282,220.665,192.922,175.882
0.012,0.354,1.284,1.284,220.689,192.950,175.818
0.013,0.452,1.292,1.292,220.718,192.985,175.732
0.015,0.578,1.307,1.307,220.755,193.027,175.619
0.016,0.731,1.329,1.329,220.798,193.075,175.480
0.017,0.908,1.359,1.359,220.847,193.130,175.320
0.018,1.103,1.397,1.397,220.901,193.189,175.142
0.019,1.311,1.445,1.445,220.958,193.253,174.952
0.021,1.527,1.502,1.502,221.018,193.320,174.755
0.022,1.747,1.570,1.570,221.080,193.389,174.556
0.023,1.965,1.643,1.643,221.142,193.459,174.360
0.024,2.175,1.720,1.720,221.204,193.529,174.170
0.025,2.374,1.798,1.798,221.263,193.597,173.994
0.027,2.556,1.873,1.873,221.320,193.664,173.835
0.028,2.716,1.942,1.942,221.374,193.727,173.698
0.029,2.850,2.001,2.001,221.422,193.787,173.588
0.030,2.956,2.049,2.049,221.464,193.840,173.506
0.031,3.037,2.082,2.082,221.499,193.887,173.450
0.033,3.096,2.102,2.102,221.527,193.925,173.415
0.034,3.134,2.110,2.110,221.547,193.952,173.397
0.035,3.152,2.107,2.107,221.557,193.966,173.392
0.036,3.157,2.097,2.097,221.557,193.967,173.398
0.037,3.179,2.080,2.080,221.547,193.951,173.409
0.039,3.221,2.058,2.058,221.524,193.918,173.422
0.040,3.285,2.034,2.034,221.490,193.865,173.433
0.041,3.373,2.009,2.009,221.442,193.792,173.438
0.042,3.488,1.984,1.984,221.380,193.695,173.434
0.044,3.632,1.960,1.960,221.303,193.574,173.416
0.045,3.805,1.936,1.936,221.213,193.430,173.385
0.046,4.000,1.914,1.914,221.112,193.268,173.342
0.047,4.213,1.894,1.894,221.004,193.093,173.289
0.048,4.437,1.877,1.877,220.891,192.909,173.229
0.050,4.667,1.862,1.862,220.777,192.720,173.164
0.051,4.896,1.850,1.850,220.664,192.533,173.096
0.052,5.120,1.842,1.842,220.556,192.350,173.027
0.053,5.331,1.837,1.837,220.456,192.177,172.959
0.054,5.524,1.835,1.835,220.366,192.018,172.895
0.056,5.694,1.836,1.836,220.290,191.878,172.836
0.057,5.833,1.840,1.840,220.230,191.762,172.785
0.058,5.939,1.846,1.846,220.190,191.674,172.745
0.059,6.011,1.854,1.854,220.168,191.612,172.714
0.060,6.056,1.864,1.864,220.160,191.574,172.693
0.062,6.079,1.875,1.875,220.162,191.554,172.682
0.063,6.090,1.887,1.887,220.172,191.549,172.680
0.064,6.105,1.898,1.898,220.185,191.555,172.686
0.065,6.129,1.907,1.907,220.198,191.569,172.700
0.067,6.158,1.914,1.914,220.207,191.586,172.721
0.068,6.191,1.915,1.915,220.208,191.602,172.750
0.069,6.230,1.912,1.912,220.199,191.615,172.786
0.070,6.279,1.901,1.901,220.175,191.619,172.828
0.071,6.343,1.882,1.882,220.133,191.611,172.876
0.073,6.428,1.855,1.855,220.070,191.588,172.929
0.074,6.535,1.822,1.822,219.988,191.551,172.986
0.075,6.660,1.783,1.783,219.890,191.502,173.047
0.076,6.799,1.740,1.740,219.781,191.443,173.109
0.077,6.948,1.695,1.695,219.662,191.377,173.172
0.079,7.104,1.648,1.648,219.539,191.305,173.235
0.080,7.262,1.600,1.600,219.414,191.231,173.296
0.081,7.418,1.554,1.554,219.290,191.156,173.354
0.082,7.568,1.510,1.510,219.171,191.082,173.408
0.083,7.708,1.469,1.469,219.060,191.012,173.457
0.085,7.833,1.431,1.431,218.961,190.948,173.500
0.086,7.940,1.397,1.397,218.878,190.892,173.535
0.087,8.025,1.367,1.367,218.811,190.846,173.562
0.088,8.090,1.341,1.341,218.761,190.809,173.581
0.089,8.137,1.320,1.320,218.726,190.781,173.594
0.091,8.167,1.304,1.304,218.705,190.761,173.601
0.092,8.183,1.294,1.294,218.695,190.749,173.603
0.093,8.188,1.289,1.289,218.695,190.744,173.601
0.094,8.199,1.290,1.290,218.705,190.745,173.596
0.096,8.218,1.296,1.296,218.721,190.753,173.589
0.097,8.245,1.307,1.307,218.744,190.765,173.580
0.098,8.278,1.322,1.322,218.770,190.782,173.571
0.099,8.315,1.341,1.341,218.799,190.804,173.563
0.100,8.355,1.364,1.364,218.829,190.828,173.556
0.102,8.395,1.391,1.391,218.859,190.856,173.551
0.103,8.435,1.420,1.420,218.887,190.883,173.547
0.104,8.471,1.449,1.449,218.911,190.910,173.545
0.105,8.501,1.477,1.477,218.931,190.933,173.545
0.106,8.524,1.500,1.500,218.946,190.950,173.545
0.108,8.536,1.517,1.517,218.952,190.961,173.546
0.109,8.539,1.525,1.525,218.950,190.962,173.548
0.110,8.555,1.522,1.522,218.938,190.952,173.551
0.111,8.589,1.507,1.507,218.914,190.929,173.553
0.112,8.642,1.477,1.477,218.877,190.891,173.556
0.114,8.717,1.437,1.437,218.826,190.836,173.559
0.115,8.816,1.389,1.389,218.760,190.762,173.561
0.116,8.939,1.338,1.338,218.678,190.670,173.562
0.117,9.082,1.286,1.286,218.583,190.564,173.564
0.119,9.239,1.237,1.237,218.479,190.447,173.565
0.120,9.406,1.196,1.196,218.368,190.322,173.566
0.121,9.579,1.164,1.164,218.252,190.193,173.566
0.122,9.753,1.146,1.146,218.134,190.065,173.567
0.123,9.924,1.141,1.141,218.018,189.939,173.568
0.125,10.087,1.147,1.147,217.905,189.821,173.569
0.126,10.239,1.161,1.161,217.799,189.713,173.571
0.127,10.374,1.180,1.180,217.701,189.620,173.573
0.128,10.488,1.203,1.203,217.615,189.544,173.575
0.129,10.578,1.227,1.227,217.544,189.490,173.578
0.131,10.646,1.249,1.249,217.486,189.456,173.581
0.132,10.696,1.268,1.268,217.438,189.441,173.583
0.133,10.736,1.282,1.282,217.397,189.442,173.583
0.134,10.775,1.291,1.291,217.361,189.457,173.581
0.135,10.819,1.295,1.295,217.327,189.483,173.574
0.137,10.870,1.295,1.295,217.291,189.518,173.563
0.138,10.930,1.291,1.291,217.252,189.560,173.545
0.139,11.000,1.283,1.283,217.204,189.605,173.521
0.140,11.081,1.271,1.271,217.147,189.652,173.489
0.141,11.174,1.256,1.256,217.077,189.699,173.449
0.143,11.283,1.237,1.237,216.991,189.742,173.399
0.144,11.409,1.217,1.217,216.887,189.780,173.338
0.145,11.553,1.195,1.195,216.766,189.812,173.268
0.146,11.710,1.172,1.172,216.632,189.838,173.191
0.148,11.877,1.149,1.149,216.488,189.858,173.107
0.149,12.052,1.128,1.128,216.337,189.872,173.019
0.150,12.231,1.108,1.108,216.184,189.880,172.928
0.151,12.410,1.091,1.091,216.030,189.882,172.836
0.152,12.586,1.077,1.077,215.880,189.878,172.745
0.154,12.755,1.068,1.068,215.736,189.868,172.656
0.155,12.915,1.061,1.061,215.602,189.851,172.570
0.156,13.061,1.059,1.059,215.482,189.829,172.490
0.157,13.191,1.061,1.061,215.378,189.800,172.417
0.158,13.303,1.066,1.066,215.294,189.765,172.353
0.160,13.399,1.075,1.075,215.227,189.726,172.296
0.161,13.482,1.088,1.088,215.177,189.683,172.245
0.162,13.556,1.105,1.105,215.141,189.638,172.199
0.163,13.621,1.125,1.125,215.118,189.593,172.158
0.164,13.681,1.148,1.148,215.106,189.549,172.120
0.166,13.736,1.172,1.172,215.104,189.507,172.083
0.167,13.789,1.196,1.196,215.110,189.469,172.047
0.168,13.839,1.219,1.219,215.121,189.436,172.011
0.169,13.888,1.241,1.241,215.137,189.409,171.974
0.170,13.936,1.260,1.260,215.156,189.391,171.933
0.172,13.985,1.274,1.274,215.176,189.382,171.889
0.173,14.037,1.284,1.284,215.195,189.383,171.841
0.174,14.093,1.289,1.289,215.212,189.391,171.789
0.175,14.151,1.290,1.290,215.226,189.406,171.734
0.177,14.212,1.286,1.286,215.236,189.426,171.677
0.178,14.274,1.278,1.278,215.240,189.448,171.620
0.179,14.336,1.267,1.267,215.238,189.470,171.562
0.180,14.397,1.252,1.252,215.227,189.491,171.505
0.181,14.459,1.234,1.234,215.207,189.509,171.450
0.183,14.521,1.213,1.213,215.177,189.521,171.397
0.184,14.586,1.190,1.190,215.135,189.527,171.347
0.185,14.658,1.165,1.165,215.080,189.523,171.302
0.186,14.739,1.140,1.140,215.010,189.509,171.261
0.187,14.833,1.116,1.116,214.927,189.483,171.226
0.189,14.938,1.092,1.092,214.833,189.449,171.195
0.190,15.053,1.071,1.071,214.730,189.408,171.166
0.191,15.174,1.052,1.052,214.621,189.362,171.139
0.192,15.300,1.037,1.037,214.509,189.312,171.113
0.193,15.426,1.027,1.027,214.396,189.263,171.086
0.195,15.551,1.020,1.020,214.284,189.214,171.057
0.196,15.671,1.015,1.015,214.177,189.169,171.025
0.197,15.785,1.014,1.014,214.077,189.129,170.990
0.198,15.889,1.014,1.014,213.987,189.097,170.949
0.200,15.983,1.015,1.015,213.909,189.075,170.902
0.201,16.067,1.017,1.017,213.846,189.064,170.847
0.202,16.146,1.018,1.018,213.797,189.064,170.785
0.203,16.225,1.020,1.020,213.762,189.072,170.714
0.204,16.309,1.021,1.021,213.739,189.086,170.635
0.206,16.399,1.023,1.023,213.727,189.103,170.547
0.207,16.497,1.027,1.027,213.723,189.121,170.451
0.208,16.604,1.033,1.033,213.726,189.136,170.345
0.209,16.719,1.042,1.042,213.736,189.147,170.231
0.210,16.843,1.054,1.054,213.749,189.150,170.107
0.212,16.978,1.071,1.071,213.765,189.143,169.974
0.213,17.123,1.093,1.093,213.782,189.123,169.832
0.214,17.280,1.121,1.121,213.799,189.089,169.679
0.215,17.451,1.153,1.153,213.814,189.036,169.517
0.216,17.635,1.190,1.190,213.826,188.968,169.347
0.218,17.828,1.230,1.230,213.834,188.885,169.172
0.219,18.029,1.275,1.275,213.838,188.792,168.995
0.220,18.232,1.323,1.323,213.836,188.690,168.819
0.221,18.435,1.374,1.374,213.828,188.582,168.646
0.222,18.635,1.428,1.428,213.813,188.471,168.480
0.224,18.829,1.485,1.485,213.790,188.360,168.324
0.225,19.012,1.542,1.542,213.759,188.251,168.180
0.226,19.183,1.601,1.601,213.718,188.147,168.051
0.227,19.339,1.660,1.660,213.667,188.051,167.939
0.229,19.478,1.719,1.719,213.605,187.965,167.849
0.230,19.603,1.776,1.776,213.531,187.891,167.781
0.231,19.717,1.831,1.831,213.448,187.830,167.733
0.232,19.825,1.884,1.884,213.358,187.782,167.698
0.233,19.930,1.934,1.934,213.262,187.746,167.674
0.235,20.032,1.980,1.980,213.164,187.723,167.654
0.236,20.133,2.021,2.021,213.066,187.713,167.634
0.237,20.233,2.058,2.058,212.969,187.716,167.610
0.238,20.332,2.090,2.090,212.877,187.730,167.576
0.239,20.433,2.117,2.117,212.792,187.757,167.528
0.241,20.542,2.137,2.137,212.716,187.796,167.461
0.242,20.665,2.151,2.151,212.651,187.848,167.370
0.243,20.809,2.158,2.158,212.600,187.911,167.251
0.244,20.981,2.158,2.158,212.564,187.986,167.101
0.245,21.177,2.153,2.153,212.542,188.071,166.925
0.247,21.394,2.144,2.144,212.532,188.163,166.730
0.248,21.625,2.133,2.133,212.532,188.261,166.520
0.249,21.865,2.119,2.119,212.541,188.362,166.303
0.250,22.108,2.106,2.106,212.557,188.466,166.083
0.252,22.348,2.094,2.094,212.579,188.568,165.867
0.253,22.579,2.084,2.084,212.604,188.669,165.661
0.254,22.794,2.077,2.077,212.631,188.765,165.470
0.255,22.987,2.074,2.074,212.659,188.854,165.301
0.256,23.153,2.075,2.075,212.685,188.935,165.159
0.258,23.284,2.080,2.080,212.709,189.005,165.051
0.259,23.380,2.089,2.089,212.728,189.064,164.977
0.260,23.446,2.102,2.102,212.744,189.111,164.934
0.261,23.487,2.120,2.120,212.755,189.146,164.916
0.262,23.512,2.143,2.143,212.763,189.170,164.918
0.264,23.533,2.171,2.171,212.766,189.181,164.936
0.265,23.561,2.202,2.202,212.766,189.181,164.964
0.266,23.596,2.233,2.233,212.762,189.170,164.996
0.267,23.637,2.264,2.264,212.755,189.147,165.029
0.268,23.683,2.292,2.292,212.743,189.112,165.057
0.270,23.735,2.314,2.314,212.728,189.066,165.075
0.271,23.796,2.329,2.329,212.709,189.008,165.077
0.272,23.871,2.334,2.334,212.686,188.939,165.060
0.273,23.963,2.327,2.327,212.660,188.858,165.022
0.274,24.073,2.308,2.308,212.631,188.767,164.968
0.276,24.199,2.280,2.280,212.600,188.666,164.900
0.277,24.339,2.244,2.244,212.565,188.555,164.822
0.278,24.490,2.204,2.204,212.529,188.436,164.737
0.279,24.649,2.161,2.161,212.491,188.308,164.651
0.281,24.815,2.118,2.118,212.451,188.172,164.565
0.282,24.984,2.078,2.078,212.410,188.028,164.484
0.283,25.156,2.042,2.042,212.368,187.878,164.411
0.284,25.329,2.013,2.013,212.326,187.722,164.350
0.285,25.503,1.991,1.991,212.284,187.560,164.305
0.287,25.678,1.976,1.976,212.241,187.392,164.278
0.288,25.855,1.967,1.967,212.199,187.220,164.269
0.289,26.037,1.965,1.965,212.157,187.043,164.275
0.290,26.225,1.969,1.969,212.115,186.861,164.293
0.291,26.418,1.980,1.980,212.072,186.675,164.319
0.293,26.617,1.996,1.996,212.029,186.483,164.352
0.294,26.821,2.019,2.019,211.986,186.287,164.387
0.295,27.029,2.049,2.049,211.942,186.087,164.421
0.296,27.241,2.086,2.086,211.897,185.882,164.452
0.297,27.457,2.130,2.130,211.851,185.672,164.476
0.299,27.676,2.183,2.183,211.804,185.458,164.491
0.300,27.900,2.245,2.245,211.756,185.240,164.493
0.301,28.128,2.316,2.316,211.707,185.018,164.480
0.302,28.359,2.397,2.397,211.658,184.794,164.453
0.304,28.591,2.489,2.489,211.608,184.570,164.415
0.305,28.822,2.590,2.590,211.560,184.349,164.366
0.306,29.050,2.696,2.696,211.513,184.133,164.311
0.307,29.270,2.804,2.804,211.468,183.926,164.251
0.308,29.482,2.908,2.908,211.427,183.728,164.188
0.310,29.680,3.006,3.006,211.389,183.544,164.125
0.311,29.863,3.093,3.093,211.357,183.375,164.064
0.312,30.027,3.165,3.165,211.329,183.223,164.007
0.313,30.169,3.217,3.217,211.308,183.092,163.957
0.314,30.287,3.248,3.248,211.294,182.983,163.916
0.316,30.377,3.260,3.260,211.287,182.898,163.884
0.317,30.443,3.256,3.256,211.287,182.836,163.863
0.318,30.488,3.241,3.241,211.292,182.794,163.849
0.319,30.515,3.219,3.219,211.302,182.769,163.842
0.320,30.532,3.193,3.193,211.315,182.760,163.840
0.322,30.548,3.167,3.167,211.331,182.763,163.842
0.323,30.570,3.144,3.144,211.348,182.776,163.846
0.324,30.598,3.129,3.129,211.366,182.798,163.852
0.325,30.631,3.122,3.122,211.382,182.825,163.857
0.326,30.665,3.122,3.122,211.398,182.856,163.860
0.328,30.699,3.127,3.127,211.410,182.887,163.860
0.329,30.730,3.135,3.135,211.419,182.917,163.856
0.330,30.759,3.146,3.146,211.424,182.943,163.846
0.331,30.785,3.157,3.157,211.425,182.965,163.830
0.333,30.812,3.168,3.168,211.424,182.981,163.809
0.334,30.841,3.177,3.177,211.422,182.992,163.783
0.335,30.873,3.183,3.183,211.420,182.995,163.751
0.336,30.911,3.185,3.185,211.418,182.989,163.713
0.337,30.957,3.183,3.183,211.418,182.975,163.669
0.339,31.012,3.175,3.175,211.421,182.951,163.620
0.340,31.078,3.162,3.162,211.427,182.916,163.565
0.341,31.155,3.142,3.142,211.438,182.869,163.504
0.342,31.246,3.114,3.114,211.454,182.809,163.438
0.343,31.351,3.079,3.079,211.476,182.735,163.366
0.345,31.471,3.036,3.036,211.505,182.649,163.289
0.346,31.602,2.986,2.986,211.540,182.552,163.207
0.347,31.743,2.931,2.931,211.579,182.447,163.123
0.348,31.890,2.875,2.875,211.622,182.336,163.036
0.349,32.041,2.818,2.818,211.668,182.221,162.949
0.351,32.193,2.764,2.764,211.716,182.106,162.862
0.352,32.344,2.713,2.713,211.764,181.992,162.776
0.353,32.490,2.670,2.670,211.813,181.882,162.692
0.354,32.629,2.635,2.635,211.860,181.779,162.613
0.356,32.758,2.608,2.608,211.906,181.684,162.537
0.357,32.874,2.587,2.587,211.948,181.601,162.468
0.358,32.976,2.572,2.572,211.987,181.532,162.405
0.359,33.063,2.559,2.559,212.022,181.475,162.349
0.360,33.137,2.548,2.548,212.053,181.430,162.299
0.362,33.200,2.536,2.536,212.080,181.394,162.255
0.363,33.254,2.522,2.522,212.104,181.365,162.216
0.364,33.302,2.504,2.504,212.125,181.341,162.181
0.365,33.343,2.480,2.480,212.143,181.320,162.150
0.366,33.381,2.453,2.453,212.159,181.300,162.121
0.368,33.417,2.423,2.423,212.172,181.279,162.096
0.369,33.453,2.391,2.391,212.183,181.255,162.071
0.370,33.491,2.358,2.358,212.192,181.225,162.049
0.371,33.535,2.326,2.326,212.199,181.189,162.026
0.372,33.586,2.296,2.296,212.205,181.143,162.004
0.374,33.644,2.268,2.268,212.211,181.091,161.979
0.375,33.707,2.244,2.244,212.218,181.035,161.952
0.376,33.773,2.223,2.223,212.229,180.978,161.921
0.377,33.841,2.204,2.204,212.245,180.923,161.883
0.378,33.910,2.186,2.186,212.268,180.875,161.838
0.380,33.984,2.168,2.168,212.298,180.836,161.784
0.381,34.065,2.149,2.149,212.339,180.808,161.720
0.382,34.159,2.127,2.127,212.392,180.797,161.643
0.383,34.271,2.103,2.103,212.458,180.803,161.553
0.385,34.407,2.076,2.076,212.539,180.832,161.448
0.386,34.572,2.045,2.045,212.637,180.886,161.326
0.387,34.769,2.013,2.013,212.752,180.966,161.187
0.388,34.997,1.982,1.982,212.882,181.071,161.033
0.389,35.250,1.955,1.955,213.024,181.196,160.865
0.391,35.522,1.933,1.933,213.175,181.336,160.687
0.392,35.808,1.919,1.919,213.331,181.488,160.502
0.393,36.103,1.916,1.916,213.489,181.647,160.310
0.394,36.401,1.924,1.924,213.646,181.810,160.116
0.395,36.696,1.946,1.946,213.798,181.972,159.922
0.397,36.983,1.979,1.979,213.942,182.129,159.729
0.398,37.257,2.021,2.021,214.075,182.277,159.541
0.399,37.511,2.069,2.069,214.194,182.412,159.361
0.400,37.742,2.121,2.121,214.295,182.529,159.190
0.401,37.947,2.174,2.174,214.377,182.627,159.030
0.403,38.128,2.226,2.226,214.442,182.706,158.881
0.404,38.290,2.275,2.275,214.492,182.769,158.740
0.405,38.436,2.319,2.319,214.530,182.818,158.607
0.406,38.571,2.357,2.357,214.558,182.854,158.481
0.407,38.696,2.393,2.393,214.579,182.879,158.360
0.409,38.816,2.426,2.426,214.596,182.896,158.243
0.410,38.931,2.460,2.460,214.610,182.905,158.128
0.411,39.046,2.495,2.495,214.625,182.910,158.015
0.412,39.160,2.532,2.532,214.643,182.912,157.902
0.414,39.276,2.575,2.575,214.667,182.912,157.788
0.415,39.397,2.623,2.623,214.699,182.914,157.672
0.416,39.522,2.676,2.676,214.740,182.917,157.554
0.417,39.651,2.734,2.734,214.787,182.922,157.434
0.418,39.780,2.793,2.793,214.840,182.928,157.316
0.420,39.909,2.852,2.852,214.896,182.936,157.201
0.421,40.035,2.908,2.908,214.953,182.945,157.089
0.422,40.155,2.959,2.959,215.010,182.956,156.984
0.423,40.267,3.004,3.004,215.064,182.968,156.886
0.424,40.369,3.040,3.040,215.114,182.980,156.797
0.426,40.459,3.067,3.067,215.157,182.994,156.720
0.427,40.534,3.085,3.085,215.192,183.007,156.655
0.428,40.592,3.096,3.096,215.217,183.022,156.604
0.429,40.632,3.103,3.103,215.230,183.037,156.570
0.430,40.657,3.107,3.107,215.231,183.051,156.550
0.432,40.674,3.110,3.110,215.225,183.065,156.542
0.433,40.691,3.114,3.114,215.213,183.077,156.543
0.434,40.709,3.120,3.120,215.199,183.087,156.550
0.435,40.727,3.131,3.131,215.185,183.093,156.560
0.437,40.741,3.147,3.147,215.175,183.095,156.569
0.438,40.749,3.168,3.168,215.172,183.093,156.576
0.439,40.759,3.194,3.194,215.178,183.085,156.576
0.440,40.784,3.224,3.224,215.197,183.070,156.566
0.441,40.830,3.259,3.259,215.231,183.049,156.545
0.443,40.901,3.299,3.299,215.284,183.020,156.507
0.444,41.000,3.343,3.343,215.357,182.982,156.452
0.445,41.126,3.391,3.391,215.450,182.937,156.380
0.446,41.274,3.444,3.444,215.559,182.886,156.294
0.447,41.438,3.498,3.498,215.680,182.830,156.198
0.449,41.614,3.551,3.551,215.809,182.773,156.093
0.450,41.797,3.602,3.602,215.944,182.714,155.984
0.451,41.981,3.649,3.649,216.079,182.657,155.874
0.452,42.161,3.690,3.690,216.212,182.602,155.765
0.453,42.333,3.723,3.723,216.340,182.552,155.660
0.455,42.492,3.745,3.745,216.457,182.507,155.564
0.456,42.632,3.756,3.756,216.562,182.471,155.477
0.457,42.749,3.757,3.757,216.649,182.444,155.405
0.458,42.839,3.750,3.750,216.717,182.428,155.349
0.459,42.903,3.737,3.737,216.766,182.421,155.308
0.461,42.945,3.721,3.721,216.798,182.420,155.280
0.462,42.968,3.704,3.704,216.814,182.424,155.264
0.463,42.978,3.687,3.687,216.816,182.431,155.257
0.464,42.990,3.672,3.672,216.806,182.437,155.257
0.466,43.011,3.662,3.662,216.786,182.441,155.264
0.467,43.042,3.657,3.657,216.757,182.440,155.273
0.468,43.081,3.655,3.655,216.721,182.432,155.285
0.469,43.127,3.656,3.656,216.680,182.414,155.297
0.470,43.181,3.660,3.660,216.635,182.385,155.306
0.472,43.245,3.665,3.665,216.588,182.342,155.311
0.473,43.320,3.671,3.671,216.541,182.284,155.311
0.474,43.405,3.677,3.677,216.494,182.214,155.301
0.475,43.499,3.682,3.682,216.447,182.135,155.281
0.476,43.601,3.685,3.685,216.400,182.050,155.246
0.478,43.712,3.686,3.686,216.353,181.965,155.194
0.479,43.832,3.683,3.683,216.306,181.880,155.123
0.480,43.963,3.676,3.676,216.260,181.801,155.030
0.481,44.108,3.664,3.664,216.215,181.730,154.912
0.482,44.271,3.646,3.646,216.170,181.671,154.766
0.484,44.458,3.621,3.621,216.126,181.628,154.590
0.485,44.673,3.589,3.589,216.083,181.603,154.381
0.486,44.921,3.548,3.548,216.041,181.601,154.136
0.487,45.204,3.501,3.501,216.000,181.622,153.856
0.489,45.516,3.450,3.450,215.961,181.663,153.550
0.490,45.850,3.398,3.398,215.924,181.720,153.223
0.491,46.198,3.346,3.346,215.889,181.790,152.883
0.492,46.553,3.297,3.297,215.858,181.869,152.539
0.493,46.906,3.252,3.252,215.829,181.954,152.198
