"T","Distance","Radius","FreeRadius","X","Y","Z"
0.000,0.000,1.342,1.342,299.343,275.419,260.012
0.001,0.039,1.296,1.296,299.322,275.436,259.983
0.003,0.078,1.251,1.251,299.301,275.453,259.955
0.004,0.114,1.211,1.211,299.280,275.467,259.929
0.005,0.148,1.177,1.177,299.259,275.478,259.905
0.007,0.179,1.152,1.152,299.237,275.485,259.885
0.008,0.207,1.136,1.136,299.214,275.487,259.869
0.009,0.233,1.132,1.132,299.190,275.482,259.858
0.011,0.261,1.142,1.142,299.165,275.470,259.853
0.012,0.294,1.165,1.165,299.139,275.450,259.855
0.014,0.336,1.197,1.197,299.112,275.421,259.865
0.015,0.388,1.234,1.234,299.083,275.380,259.883
0.016,0.454,1.273,1.273,299.052,275.329,259.910
0.018,0.536,1.310,1.310,299.020,275.264,259.947
0.019,0.633,1.340,1.340,298.985,275.187,259.996
0.020,0.749,1.360,1.360,298.948,275.094,260.056
0.022,0.882,1.368,1.368,298.909,274.989,260.126
0.023,1.029,1.366,1.366,298.868,274.873,260.207
0.024,1.188,1.358,1.358,298.825,274.748,260.295
0.026,1.355,1.346,1.346,298.779,274.618,260.389
0.027,1.529,1.334,1.334,298.731,274.483,260.488
0.028,1.707,1.326,1.326,298.681,274.347,260.590
0.030,1.885,1.325,1.325,298.628,274.211,260.694
0.031,2.063,1.335,1.335,298.574,274.079,260.798
0.032,2.236,1.353,1.353,298.516,273.951,260.901
0.034,2.403,1.379,1.379,298.457,273.832,261.001
0.035,2.561,1.408,1.408,298.394,273.722,261.096
0.037,2.709,1.438,1.438,298.330,273.624,261.186
0.038,2.843,1.464,1.464,298.263,273.541,261.268
0.039,2.964,1.485,1.485,298.193,273.474,261.341
0.041,3.073,1.497,1.497,298.122,273.424,261.405
0.042,3.170,1.499,1.499,298.049,273.390,261.460
0.043,3.260,1.493,1.493,297.976,273.369,261.508
0.045,3.344,1.482,1.482,297.902,273.360,261.548
0.046,3.424,1.470,1.470,297.829,273.361,261.581
0.047,3.501,1.460,1.460,297.758,273.372,261.608
0.049,3.575,1.455,1.455,297.689,273.390,261.629
0.050,3.647,1.458,1.458,297.623,273.413,261.645
0.051,3.717,1.474,1.474,297.561,273.441,261.657
0.053,3.783,1.500,1.500,297.502,273.471,261.665
0.054,3.845,1.534,1.534,297.449,273.503,261.670
0.055,3.901,1.573,1.573,297.402,273.533,261.672
0.057,3.951,1.614,1.614,297.361,273.562,261.672
0.058,3.993,1.654,1.654,297.327,273.587,261.671
0.060,4.027,1.691,1.691,297.301,273.607,261.669
0.061,4.052,1.720,1.720,297.281,273.623,261.666
0.062,4.071,1.742,1.742,297.266,273.635,261.663
0.064,4.085,1.755,1.755,297.256,273.643,261.660
0.065,4.093,1.762,1.762,297.250,273.647,261.658
0.066,4.096,1.762,1.762,297.246,273.648,261.656
0.068,4.099,1.759,1.759,297.245,273.647,261.656
0.069,4.104,1.751,1.751,297.244,273.642,261.657
0.070,4.111,1.741,1.741,297.244,273.635,261.659
0.072,4.122,1.730,1.730,297.243,273.625,261.664
0.073,4.136,1.717,1.717,297.240,273.614,261.672
0.074,4.153,1.704,1.704,297.235,273.601,261.682
0.076,4.175,1.690,1.690,297.226,273.587,261.695
0.077,4.201,1.676,1.676,297.213,273.571,261.712
0.078,4.233,1.662,1.662,297.195,273.555,261.732
0.080,4.270,1.648,1.648,297.173,273.537,261.756
0.081,4.311,1.636,1.636,297.146,273.520,261.783
0.083,4.357,1.624,1.624,297.116,273.503,261.812
0.084,4.407,1.614,1.614,297.082,273.485,261.845
0.085,4.459,1.605,1.605,297.046,273.468,261.879
0.087,4.515,1.598,1.598,297.007,273.452,261.915
0.088,4.572,1.593,1.593,296.966,273.437,261.953
0.089,4.632,1.589,1.589,296.924,273.423,261.992
0.091,4.692,1.589,1.589,296.881,273.411,262.032
0.092,4.753,1.590,1.590,296.837,273.400,262.073
0.093,4.813,1.594,1.594,296.793,273.392,262.114
0.095,4.874,1.600,1.600,296.750,273.386,262.155
0.096,4.933,1.608,1.608,296.707,273.382,262.196
0.097,4.991,1.616,1.616,296.665,273.381,262.236
0.099,5.048,1.626,1.626,296.624,273.383,262.276
0.100,5.105,1.636,1.636,296.583,273.387,262.315
0.101,5.161,1.647,1.647,296.544,273.394,262.354
0.103,5.217,1.657,1.657,296.504,273.402,262.393
0.104,5.273,1.666,1.666,296.464,273.412,262.431
0.106,5.329,1.673,1.673,296.424,273.423,262.469
0.107,5.386,1.678,1.678,296.383,273.436,262.506
0.108,5.443,1.680,1.680,296.342,273.449,262.543
0.110,5.502,1.679,1.679,296.299,273.464,262.580
0.111,5.561,1.673,1.673,296.254,273.478,262.617
0.112,5.622,1.663,1.663,296.208,273.493,262.653
0.114,5.684,1.649,1.649,296.161,273.508,262.690
0.115,5.747,1.633,1.633,296.110,273.523,262.726
0.116,5.813,1.616,1.616,296.058,273.537,262.762
0.118,5.880,1.599,1.599,296.002,273.550,262.798
0.119,5.952,1.585,1.585,295.942,273.562,262.835
0.120,6.027,1.575,1.575,295.878,273.573,262.872
0.122,6.106,1.569,1.569,295.809,273.581,262.911
0.123,6.192,1.569,1.569,295.733,273.587,262.951
0.124,6.284,1.575,1.575,295.651,273.590,262.992
0.126,6.384,1.587,1.587,295.561,273.590,263.035
0.127,6.492,1.604,1.604,295.462,273.586,263.080
0.129,6.610,1.627,1.627,295.355,273.579,263.128
0.130,6.738,1.655,1.655,295.238,273.566,263.178
0.131,6.877,1.689,1.689,295.111,273.549,263.231
0.133,7.029,1.727,1.727,294.972,273.527,263.288
0.134,7.193,1.772,1.772,294.821,273.499,263.348
0.135,7.372,1.824,1.824,294.657,273.466,263.412
0.137,7.564,1.885,1.885,294.482,273.427,263.479
0.138,7.766,1.955,1.955,294.297,273.384,263.549
0.139,7.975,2.035,2.035,294.106,273.338,263.618
0.141,8.187,2.127,2.127,293.910,273.291,263.688
0.142,8.401,2.231,2.231,293.712,273.245,263.755
0.143,8.614,2.346,2.346,293.515,273.201,263.819
0.145,8.821,2.467,2.467,293.321,273.160,263.878
0.146,9.021,2.589,2.589,293.132,273.125,263.932
0.147,9.210,2.708,2.708,292.951,273.095,263.979
0.149,9.386,2.818,2.818,292.780,273.073,264.017
0.150,9.547,2.917,2.917,292.622,273.061,264.045
0.152,9.690,2.997,2.997,292.480,273.059,264.062
0.153,9.815,3.057,3.057,292.355,273.070,264.067
0.154,9.923,3.099,3.099,292.251,273.094,264.058
0.156,10.017,3.127,3.127,292.167,273.131,264.035
0.157,10.103,3.144,3.144,292.103,273.177,264.002
0.158,10.184,3.154,3.154,292.055,273.228,263.961
0.160,10.260,3.161,3.161,292.021,273.278,263.915
0.161,10.329,3.168,3.168,292.000,273.325,263.868
0.162,10.390,3.180,3.180,291.988,273.362,263.822
0.164,10.439,3.195,3.195,291.984,273.386,263.779
0.165,10.475,3.212,3.212,291.985,273.393,263.745
0.166,10.504,3.227,3.227,291.989,273.378,263.720
0.168,10.548,3.237,3.237,291.994,273.336,263.708
0.169,10.621,3.239,3.239,291.997,273.263,263.712
0.171,10.731,3.230,3.230,291.996,273.155,263.736
0.172,10.886,3.207,3.207,291.988,273.007,263.781
0.173,11.091,3.169,3.169,291.972,272.815,263.852
0.175,11.350,3.125,3.125,291.946,272.577,263.949
0.176,11.657,3.084,3.084,291.911,272.297,264.069
0.177,12.004,3.056,3.056,291.868,271.982,264.209
0.179,12.384,3.049,3.049,291.817,271.639,264.364
0.180,12.790,3.074,3.074,291.761,271.272,264.531
0.181,13.215,3.140,3.140,291.700,270.890,264.705
0.183,13.651,3.256,3.256,291.636,270.498,264.883
0.184,14.090,3.416,3.416,291.570,270.101,265.061
0.185,14.525,3.608,3.608,291.503,269.708,265.234
0.187,14.949,3.819,3.819,291.436,269.323,265.400
0.188,15.355,4.034,4.034,291.371,268.953,265.552
0.189,15.735,4.240,4.240,291.308,268.604,265.689
0.191,16.082,4.424,4.424,291.249,268.283,265.806
0.192,16.388,4.572,4.572,291.195,267.996,265.899
0.194,16.650,4.676,4.676,291.147,267.747,265.964
0.195,16.867,4.744,4.744,291.104,267.537,266.004
0.196,17.046,4.785,4.785,291.066,267.363,266.020
0.198,17.191,4.806,4.806,291.032,267.223,266.016
0.199,17.308,4.819,4.819,291.001,267.113,265.995
0.200,17.402,4.831,4.831,290.972,267.031,265.959
0.202,17.481,4.851,4.851,290.943,266.974,265.911
0.203,17.553,4.888,4.888,290.915,266.940,265.854
0.204,17.624,4.940,4.940,290.886,266.927,265.791
0.206,17.697,4.999,4.999,290.855,266.932,265.725
0.207,17.774,5.059,5.059,290.822,266.951,265.658
0.208,17.855,5.111,5.111,290.785,266.983,265.593
0.210,17.939,5.148,5.148,290.743,267.025,265.534
0.211,18.024,5.163,5.163,290.696,267.074,265.483
0.212,18.109,5.148,5.148,290.643,267.128,265.442
0.214,18.195,5.102,5.102,290.585,267.184,265.413
0.215,18.279,5.034,5.034,290.525,267.238,265.394
0.217,18.358,4.955,4.955,290.463,267.288,265.386
0.218,18.431,4.875,4.875,290.404,267.330,265.387
0.219,18.496,4.807,4.807,290.348,267.362,265.398
0.221,18.553,4.759,4.759,290.298,267.380,265.417
0.222,18.602,4.745,4.745,290.257,267.381,265.444
0.223,18.652,4.771,4.771,290.226,267.363,265.478
0.225,18.713,4.833,4.833,290.208,267.321,265.520
0.226,18.796,4.916,4.916,290.205,267.253,265.567
0.227,18.908,5.009,5.009,290.220,267.156,265.621
0.229,19.054,5.097,5.097,290.254,267.026,265.679
0.230,19.239,5.167,5.167,290.309,266.861,265.742
0.231,19.468,5.206,5.206,290.389,266.658,265.809
0.233,19.739,5.200,5.200,290.492,266.417,265.880
0.234,20.046,5.147,5.147,290.616,266.146,265.953
0.235,20.382,5.056,5.056,290.756,265.849,266.027
0.237,20.741,4.939,4.939,290.910,265.534,266.103
0.238,21.115,4.809,4.809,291.073,265.206,266.178
0.240,21.498,4.678,4.678,291.244,264.872,266.252
0.241,21.881,4.557,4.557,291.418,264.538,266.325
0.242,22.259,4.459,4.459,291.591,264.210,266.395
0.244,22.624,4.394,4.394,291.761,263.894,266.461
0.245,22.969,4.360,4.360,291.924,263.596,266.523
0.246,23.286,4.350,4.350,292.077,263.323,266.580
0.248,23.570,4.358,4.358,292.216,263.081,266.631
0.249,23.812,4.377,4.377,292.338,262.877,266.675
0.250,24.007,4.400,4.400,292.439,262.715,266.711
0.252,24.150,4.421,4.421,292.518,262.599,266.739
0.253,24.247,4.434,4.434,292.577,262.524,266.760
0.254,24.306,4.435,4.435,292.617,262.484,266.774
0.256,24.334,4.427,4.427,292.641,262.472,266.782
0.257,24.350,4.414,4.414,292.651,262.485,266.785
0.258,24.380,4.398,4.398,292.649,262.515,266.784
0.260,24.424,4.382,4.382,292.636,262.556,266.778
0.261,24.476,4.369,4.369,292.616,262.604,266.771
0.263,24.532,4.363,4.363,292.589,262.652,266.761
0.264,24.585,4.366,4.366,292.559,262.695,266.749
0.265,24.632,4.377,4.377,292.527,262.727,266.737
0.267,24.668,4.393,4.393,292.496,262.741,266.726
0.268,24.701,4.412,4.412,292.466,262.732,266.715
0.269,24.746,4.433,4.433,292.442,262.695,266.706
0.271,24.818,4.453,4.453,292.423,262.626,266.699
0.272,24.918,4.471,4.471,292.413,262.527,266.693
0.273,25.041,4.484,4.484,292.411,262.404,266.687
0.275,25.185,4.491,4.491,292.419,262.261,266.678
0.276,25.345,4.491,4.491,292.439,262.103,266.665
0.277,25.518,4.486,4.486,292.471,261.934,266.646
0.279,25.700,4.474,4.474,292.516,261.759,266.621
0.280,25.889,4.455,4.455,292.576,261.583,266.586
0.281,26.082,4.430,4.430,292.652,261.411,266.542
0.283,26.279,4.398,4.398,292.745,261.247,266.485
0.284,26.479,4.360,4.360,292.856,261.095,266.416
0.286,26.685,4.317,4.317,292.986,260.962,266.331
0.287,26.898,4.271,4.271,293.137,260.850,266.229
0.288,27.124,4.223,4.223,293.310,260.766,266.110
0.290,27.369,4.175,4.175,293.505,260.712,265.971
0.291,27.636,4.130,4.130,293.719,260.686,265.816
0.292,27.920,4.089,4.089,293.950,260.682,265.650
0.294,28.218,4.054,4.054,294.193,260.693,265.478
0.295,28.524,4.025,4.025,294.445,260.714,265.304
0.296,28.833,3.999,3.999,294.700,260.739,265.133
0.298,29.137,3.976,3.976,294.957,260.763,264.971
0.299,29.431,3.953,3.953,295.210,260.778,264.822
0.300,29.710,3.930,3.930,295.456,260.780,264.692
0.302,29.969,3.903,3.903,295.691,260.763,264.583
0.303,30.208,3.871,3.871,295.911,260.720,264.503
0.304,30.428,3.834,3.834,296.113,260.645,264.456
0.306,30.639,3.796,3.796,296.292,260.534,264.445
0.307,30.859,3.764,3.764,296.445,260.379,264.478
0.309,31.109,3.741,3.741,296.568,260.176,264.557
0.310,31.403,3.733,3.733,296.661,259.926,264.681
0.311,31.742,3.746,3.746,296.727,259.637,264.845
0.313,32.121,3.786,3.786,296.767,259.316,265.043
0.314,32.535,3.857,3.857,296.786,258.970,265.269
0.315,32.974,3.956,3.956,296.785,258.608,265.517
0.317,33.432,4.076,4.076,296.767,258.235,265.782
0.318,33.898,4.209,4.209,296.735,257.860,266.057
0.319,34.365,4.346,4.346,296.691,257.490,266.338
0.321,34.822,4.478,4.478,296.637,257.132,266.617
0.322,35.260,4.598,4.598,296.578,256.794,266.890
0.323,35.670,4.698,4.698,296.514,256.484,267.150
0.325,36.043,4.772,4.772,296.449,256.207,267.391
0.326,36.369,4.824,4.824,296.386,255.973,267.609
0.327,36.639,4.859,4.859,296.327,255.788,267.796
0.329,36.851,4.881,4.881,296.272,255.653,267.951
0.330,37.013,4.896,4.896,296.223,255.563,268.076
0.332,37.131,4.909,4.909,296.179,255.512,268.174
0.333,37.215,4.925,4.925,296.139,255.493,268.245
0.334,37.276,4.947,4.947,296.103,255.501,268.294
0.336,37.326,4.977,4.977,296.071,255.528,268.321
0.337,37.377,5.013,5.013,296.043,255.570,268.330
0.338,37.433,5.050,5.050,296.017,255.618,268.323
0.340,37.492,5.088,5.088,295.994,255.668,268.302
0.341,37.551,5.123,5.123,295.974,255.713,268.269
0.342,37.608,5.153,5.153,295.956,255.746,268.227
0.344,37.662,5.176,5.176,295.939,255.762,268.178
0.345,37.718,5.189,5.189,295.924,255.754,268.124
0.346,37.787,5.197,5.197,295.910,255.717,268.068
0.348,37.879,5.201,5.201,295.897,255.645,268.011
0.349,37.997,5.204,5.204,295.886,255.542,267.954
0.350,38.141,5.209,5.209,295.876,255.411,267.898
0.352,38.308,5.218,5.218,295.869,255.254,267.841
0.353,38.496,5.235,5.235,295.866,255.074,267.785
0.355,38.702,5.262,5.262,295.866,254.875,267.730
0.356,38.925,5.298,5.298,295.870,254.660,267.676
0.357,39.160,5.340,5.340,295.879,254.431,267.623
0.359,39.406,5.387,5.387,295.894,254.191,267.571
0.360,39.659,5.436,5.436,295.914,253.943,267.521
0.361,39.917,5.483,5.483,295.941,253.691,267.473
0.363,40.177,5.528,5.528,295.975,253.438,267.427
0.364,40.436,5.568,5.568,296.017,253.186,267.383
0.365,40.692,5.601,5.601,296.067,252.938,267.342
0.367,40.943,5.629,5.629,296.125,252.697,267.303
0.368,41.187,5.654,5.654,296.190,252.464,267.268
0.369,41.424,5.678,5.678,296.259,252.240,267.236
0.371,41.653,5.703,5.703,296.331,252.024,267.210
0.372,41.873,5.730,5.730,296.404,251.818,267.188
0.373,42.081,5.761,5.761,296.474,251.622,267.171
0.375,42.278,5.798,5.798,296.541,251.437,267.161
0.376,42.463,5.840,5.840,296.602,251.264,267.158
0.378,42.633,5.884,5.884,296.655,251.101,267.161
0.379,42.790,5.928,5.928,296.699,250.952,267.173
0.380,42.931,5.970,5.970,296.730,250.815,267.193
0.382,43.059,6.007,6.007,296.746,250.691,267.223
0.383,43.176,6.037,6.037,296.747,250.582,267.261
0.384,43.284,6.057,6.057,296.729,250.487,267.310
0.386,43.391,6.069,6.069,296.691,250.407,267.370
0.387,43.501,6.075,6.075,296.635,250.339,267.437
0.388,43.617,6.081,6.081,296.566,250.281,267.510
0.390,43.737,6.092,6.092,296.487,250.230,267.584
0.391,43.858,6.111,6.111,296.402,250.182,267.656
0.392,43.977,6.143,6.143,296.315,250.135,267.722
0.394,44.091,6.193,6.193,296.231,250.084,267.780
0.395,44.197,6.263,6.263,296.154,250.028,267.826
0.396,44.296,6.350,6.350,296.087,249.963,267.857
0.398,44.390,6.446,6.446,296.035,249.885,267.868
0.399,44.489,6.542,6.542,296.001,249.793,267.858
0.401,44.607,6.631,6.631,295.990,249.681,267.821
0.402,44.755,6.706,6.706,296.006,249.549,267.756
0.403,44.947,6.759,6.759,296.053,249.391,267.658
0.405,45.189,6.782,6.782,296.134,249.206,267.524
0.406,45.483,6.776,6.776,296.250,248.995,267.356
0.407,45.821,6.749,6.749,296.395,248.762,267.159
0.409,46.197,6.711,6.711,296.566,248.511,266.937
0.410,46.602,6.671,6.671,296.757,248.247,266.696
0.411,47.029,6.640,6.640,296.964,247.974,266.441
0.413,47.469,6.625,6.625,297.183,247.698,266.177
0.414,47.914,6.638,6.638,297.408,247.423,265.910
0.415,48.357,6.685,6.685,297.637,247.152,265.644
0.417,48.789,6.759,6.759,297.863,246.892,265.384
0.418,49.202,6.848,6.848,298.083,246.646,265.135
0.419,49.588,6.943,6.943,298.292,246.419,264.904
0.421,49.939,7.032,7.032,298.486,246.215,264.694
0.422,50.246,7.104,7.104,298.659,246.039,264.511
0.424,50.502,7.149,7.149,298.808,245.896,264.360
0.425,50.703,7.157,7.157,298.930,245.787,264.242
0.426,50.855,7.127,7.127,299.026,245.708,264.156
0.428,50.961,7.070,7.070,299.099,245.657,264.098
0.429,51.028,7.000,7.000,299.150,245.629,264.065
0.430,51.060,6.927,6.927,299.179,245.622,264.053
0.432,51.076,6.863,6.863,299.190,245.631,264.059
0.433,51.108,6.820,6.820,299.183,245.654,264.081
0.434,51.160,6.811,6.811,299.159,245.686,264.115
0.436,51.229,6.842,6.842,299.121,245.724,264.158
0.437,51.310,6.906,6.906,299.070,245.764,264.206
0.438,51.400,6.991,6.991,299.008,245.804,264.258
0.440,51.494,7.087,7.087,298.936,245.838,264.308
0.441,51.591,7.182,7.182,298.856,245.865,264.355
0.442,51.688,7.264,7.264,298.768,245.880,264.395
0.444,51.785,7.323,7.323,298.676,245.882,264.426
0.445,51.882,7.346,7.346,298.583,245.870,264.449
0.447,51.977,7.335,7.335,298.492,245.848,264.465
0.448,52.068,7.299,7.299,298.407,245.816,264.476
0.449,52.153,7.247,7.247,298.332,245.777,264.484
0.451,52.230,7.188,7.188,298.270,245.733,264.488
0.452,52.296,7.132,7.132,298.225,245.685,264.492
0.453,52.352,7.089,7.089,298.200,245.635,264.496
0.455,52.403,7.068,7.068,298.199,245.584,264.502
0.456,52.460,7.075,7.075,298.226,245.535,264.511
0.457,52.535,7.099,7.099,298.285,245.490,264.525
0.459,52.639,7.130,7.130,298.379,245.449,264.544
0.460,52.778,7.156,7.156,298.511,245.415,264.571
0.461,52.958,7.164,7.164,298.685,245.390,264.606
0.463,53.182,7.145,7.145,298.904,245.375,264.652
0.464,53.447,7.085,7.085,299.163,245.370,264.706
0.465,53.745,6.975,6.975,299.456,245.373,264.767
0.467,54.071,6.816,6.816,299.774,245.383,264.834
0.468,54.417,6.621,6.621,300.112,245.400,264.904
0.470,54.776,6.403,6.403,300.463,245.422,264.978
0.471,55.141,6.174,6.174,300.820,245.448,265.051
0.472,55.506,5.945,5.945,301.176,245.478,265.125
0.474,55.863,5.731,5.731,301.525,245.509,265.195
0.475,56.206,5.542,5.542,301.859,245.542,265.262
0.476,56.526,5.387,5.387,302.172,245.574,265.323
0.478,56.818,5.264,5.264,302.457,245.605,265.377
0.479,57.074,5.168,5.168,302.708,245.634,265.422
0.480,57.288,5.097,5.097,302.917,245.659,265.456
0.482,57.452,5.045,5.045,303.078,245.680,265.479
0.483,57.569,5.010,5.010,303.194,245.697,265.491
0.484,57.645,4.986,4.986,303.269,245.709,265.494
0.486,57.687,4.971,4.971,303.309,245.718,265.489
0.487,57.703,4.962,4.962,303.321,245.723,265.480
0.488,57.720,4.959,4.959,303.309,245.725,265.467
0.490,57.752,4.961,4.961,303.280,245.725,265.453
0.491,57.794,4.967,4.967,303.240,245.722,265.440
0.493,57.842,4.976,4.976,303.194,245.717,265.430
0.494,57.889,4.988,4.988,303.147,245.710,265.424
0.495,57.930,5.002,5.002,303.107,245.701,265.426
0.497,57.962,5.017,5.017,303.078,245.692,265.436
0.498,57.988,5.031,5.031,303.066,245.682,265.457
0.499,58.025,5.042,5.042,303.078,245.672,265.491
0.501,58.089,5.049,5.049,303.118,245.661,265.539
0.502,58.183,5.050,5.050,303.187,245.651,265.602
0.503,58.306,5.043,5.043,303.283,245.640,265.677
0.505,58.452,5.026,5.026,303.401,245.630,265.763
0.506,58.618,4.998,4.998,303.537,245.620,265.857
0.507,58.800,4.959,4.959,303.689,245.610,265.958
0.509,58.993,4.912,4.912,303.851,245.600,266.063
0.510,59.194,4.857,4.857,304.020,245.589,266.170
0.512,59.398,4.798,4.798,304.194,245.579,266.277
0.513,59.600,4.735,4.735,304.366,245.568,266.382
0.514,59.797,4.670,4.670,304.535,245.558,266.482
0.516,59.985,4.606,4.606,304.697,245.547,266.577
0.517,60.158,4.544,4.544,304.846,245.536,266.663
0.518,60.312,4.484,4.484,304.981,245.524,266.739
0.520,60.445,4.430,4.430,305.096,245.513,266.802
0.521,60.552,4.382,4.382,305.191,245.501,266.852
0.522,60.638,4.341,4.341,305.267,245.488,266.889
0.524,60.704,4.309,4.309,305.326,245.475,266.915
0.525,60.753,4.287,4.287,305.371,245.462,266.931
0.526,60.790,4.276,4.276,305.404,245.448,266.938
0.528,60.816,4.275,4.275,305.426,245.433,266.937
0.529,60.839,4.281,4.281,305.441,245.417,266.929
0.530,60.862,4.291,4.291,305.449,245.400,266.917
0.532,60.887,4.302,4.302,305.454,245.382,266.900
0.533,60.915,4.313,4.313,305.458,245.363,266.880
0.535,60.945,4.319,4.319,305.462,245.342,266.858
0.536,60.977,4.320,4.320,305.469,245.320,266.836
0.537,61.011,4.313,4.313,305.482,245.297,266.814
0.539,61.049,4.298,4.298,305.502,245.272,266.794
0.540,61.091,4.278,4.278,305.530,245.246,266.777
0.541,61.140,4.253,4.253,305.567,245.217,266.761
0.543,61.196,4.223,4.223,305.610,245.186,266.746
0.544,61.257,4.189,4.189,305.659,245.152,266.732
0.545,61.325,4.153,4.153,305.713,245.115,266.717
0.547,61.397,4.115,4.115,305.771,245.074,266.700
0.548,61.475,4.074,4.074,305.831,245.029,266.681
0.549,61.557,4.030,4.030,305.892,244.979,266.659
0.551,61.643,3.982,3.982,305.953,244.924,266.632
0.552,61.734,3.931,3.931,306.013,244.864,266.600
