"T","Distance","Radius","FreeRadius","X","Y","Z"
0.000,0.000,0.836,0.996,84.511,-57.351,-1.306
0.001,0.139,0.877,1.009,84.636,-57.353,-1.246
0.003,0.276,0.918,1.023,84.760,-57.353,-1.188
0.004,0.409,0.957,1.036,84.881,-57.349,-1.132
0.006,0.537,0.994,1.048,84.998,-57.340,-1.082
0.007,0.658,1.028,1.061,85.110,-57.322,-1.038
0.009,0.772,1.058,1.072,85.215,-57.295,-1.002
0.010,0.880,1.083,1.083,85.311,-57.256,-0.975
0.011,0.983,1.103,1.094,85.398,-57.204,-0.959
0.013,1.085,1.119,1.104,85.475,-57.136,-0.956
0.014,1.192,1.131,1.115,85.539,-57.050,-0.967
0.016,1.311,1.139,1.128,85.589,-56.945,-0.994
0.017,1.445,1.145,1.143,85.627,-56.824,-1.035
0.019,1.591,1.150,1.162,85.653,-56.689,-1.086
0.020,1.748,1.153,1.184,85.670,-56.546,-1.146
0.022,1.911,1.156,1.211,85.679,-56.397,-1.211
0.023,2.075,1.159,1.241,85.681,-56.246,-1.278
0.024,2.238,1.163,1.271,85.678,-56.099,-1.345
0.026,2.393,1.167,1.301,85.671,-55.957,-1.408
0.027,2.536,1.172,1.327,85.663,-55.826,-1.465
0.029,2.662,1.178,1.348,85.654,-55.709,-1.512
0.030,2.768,1.185,1.361,85.646,-55.609,-1.547
0.032,2.853,1.193,1.366,85.640,-55.528,-1.569
0.033,2.920,1.203,1.363,85.636,-55.462,-1.581
0.034,2.974,1.213,1.354,85.635,-55.408,-1.585
0.036,3.020,1.225,1.342,85.636,-55.362,-1.582
0.037,3.060,1.236,1.329,85.640,-55.322,-1.576
0.039,3.099,1.249,1.317,85.648,-55.285,-1.568
0.040,3.139,1.261,1.307,85.658,-55.247,-1.561
0.042,3.184,1.273,1.303,85.672,-55.205,-1.556
0.043,3.235,1.285,1.304,85.690,-55.157,-1.555
0.045,3.298,1.299,1.310,85.712,-55.098,-1.562
0.046,3.374,1.314,1.321,85.737,-55.028,-1.576
0.047,3.460,1.332,1.337,85.766,-54.950,-1.597
0.049,3.555,1.353,1.357,85.797,-54.864,-1.622
0.050,3.655,1.378,1.382,85.830,-54.774,-1.650
0.052,3.757,1.408,1.412,85.863,-54.681,-1.678
0.053,3.859,1.440,1.444,85.897,-54.589,-1.706
0.055,3.958,1.474,1.477,85.930,-54.499,-1.731
0.056,4.051,1.508,1.510,85.962,-54.414,-1.752
0.057,4.135,1.540,1.541,85.991,-54.337,-1.767
0.059,4.209,1.568,1.568,86.017,-54.269,-1.774
0.060,4.270,1.590,1.590,86.040,-54.212,-1.772
0.062,4.321,1.605,1.605,86.059,-54.166,-1.763
0.063,4.363,1.614,1.614,86.074,-54.129,-1.748
0.065,4.398,1.618,1.618,86.087,-54.102,-1.729
0.066,4.428,1.618,1.618,86.095,-54.082,-1.709
0.068,4.454,1.616,1.616,86.101,-54.068,-1.688
0.069,4.474,1.612,1.612,86.104,-54.061,-1.669
0.070,4.490,1.609,1.609,86.104,-54.058,-1.654
0.072,4.500,1.607,1.606,86.101,-54.060,-1.644
0.073,4.507,1.606,1.605,86.095,-54.064,-1.642
0.075,4.519,1.606,1.605,86.087,-54.069,-1.648
0.076,4.536,1.606,1.604,86.078,-54.075,-1.660
0.078,4.553,1.605,1.603,86.070,-54.080,-1.676
0.079,4.568,1.603,1.602,86.067,-54.081,-1.690
0.080,4.578,1.599,1.599,86.070,-54.077,-1.699
0.082,4.594,1.592,1.593,86.082,-54.066,-1.699
0.083,4.626,1.583,1.586,86.105,-54.047,-1.687
0.085,4.681,1.571,1.577,86.141,-54.018,-1.658
0.086,4.764,1.559,1.566,86.193,-53.976,-1.609
0.088,4.879,1.546,1.553,86.263,-53.921,-1.537
0.089,5.031,1.534,1.539,86.353,-53.850,-1.436
0.091,5.218,1.522,1.523,86.462,-53.766,-1.309
0.092,5.433,1.512,1.506,86.585,-53.673,-1.160
0.093,5.668,1.503,1.490,86.719,-53.575,-0.992
0.095,5.917,1.496,1.475,86.857,-53.478,-0.810
0.096,6.171,1.490,1.463,86.997,-53.386,-0.619
0.098,6.425,1.485,1.458,87.133,-53.302,-0.422
0.099,6.671,1.481,1.460,87.262,-53.233,-0.223
0.101,6.904,1.477,1.471,87.379,-53.183,-0.028
0.102,7.119,1.475,1.493,87.479,-53.155,0.160
0.103,7.312,1.473,1.525,87.558,-53.155,0.336
0.105,7.486,1.473,1.562,87.614,-53.183,0.499
0.106,7.648,1.476,1.602,87.650,-53.233,0.648
0.108,7.801,1.482,1.641,87.667,-53.297,0.786
0.109,7.948,1.491,1.675,87.667,-53.370,0.913
0.111,8.087,1.504,1.701,87.654,-53.445,1.030
0.112,8.218,1.523,1.716,87.629,-53.515,1.138
0.114,8.340,1.544,1.720,87.594,-53.574,1.238
0.115,8.450,1.566,1.712,87.551,-53.615,1.332
0.116,8.551,1.584,1.695,87.504,-53.630,1.419
0.118,8.649,1.597,1.670,87.454,-53.615,1.502
0.119,8.756,1.600,1.638,87.402,-53.564,1.581
0.121,8.877,1.591,1.600,87.350,-53.484,1.655
0.122,9.013,1.567,1.556,87.299,-53.379,1.724
0.124,9.160,1.530,1.510,87.247,-53.256,1.786
0.125,9.314,1.484,1.463,87.198,-53.121,1.841
0.126,9.469,1.433,1.417,87.149,-52.981,1.888
0.128,9.621,1.381,1.375,87.104,-52.841,1.927
0.129,9.764,1.334,1.338,87.060,-52.708,1.955
0.131,9.892,1.296,1.308,87.020,-52.588,1.974
0.132,10.000,1.271,1.288,86.984,-52.487,1.981
0.134,10.083,1.258,1.277,86.952,-52.410,1.976
0.135,10.147,1.253,1.272,86.925,-52.354,1.963
0.136,10.197,1.254,1.270,86.901,-52.315,1.943
0.138,10.238,1.256,1.267,86.882,-52.286,1.921
0.139,10.272,1.256,1.262,86.866,-52.265,1.899
0.141,10.302,1.249,1.250,86.854,-52.244,1.881
0.142,10.330,1.231,1.230,86.846,-52.219,1.871
0.144,10.364,1.204,1.201,86.841,-52.185,1.870
0.145,10.414,1.171,1.167,86.839,-52.137,1.884
0.147,10.488,1.133,1.130,86.841,-52.070,1.915
0.148,10.592,1.096,1.093,86.846,-51.979,1.965
0.149,10.727,1.061,1.060,86.854,-51.865,2.035
0.151,10.887,1.033,1.033,86.865,-51.730,2.121
0.152,11.069,1.015,1.015,86.880,-51.578,2.219
0.154,11.266,1.006,1.007,86.899,-51.413,2.327
0.155,11.476,1.007,1.008,86.922,-51.238,2.440
0.157,11.692,1.016,1.017,86.949,-51.057,2.556
0.158,11.911,1.031,1.032,86.980,-50.874,2.671
0.159,12.128,1.052,1.053,87.015,-50.691,2.782
0.161,12.337,1.077,1.077,87.056,-50.513,2.885
0.162,12.536,1.106,1.106,87.101,-50.343,2.977
0.164,12.722,1.136,1.136,87.150,-50.182,3.057
0.165,12.896,1.169,1.169,87.202,-50.031,3.125
0.167,13.057,1.203,1.203,87.255,-49.890,3.182
0.168,13.206,1.238,1.238,87.307,-49.758,3.229
0.170,13.343,1.274,1.274,87.356,-49.635,3.266
0.171,13.469,1.311,1.311,87.401,-49.522,3.294
0.172,13.583,1.348,1.348,87.439,-49.417,3.315
0.174,13.685,1.385,1.384,87.470,-49.320,3.328
0.175,13.775,1.421,1.420,87.490,-49.232,3.335
0.177,13.856,1.455,1.454,87.500,-49.153,3.337
0.178,13.928,1.486,1.485,87.497,-49.081,3.333
0.180,13.994,1.515,1.514,87.484,-49.016,3.327
0.181,14.057,1.539,1.539,87.463,-48.957,3.318
0.182,14.118,1.559,1.559,87.436,-48.904,3.310
0.184,14.176,1.574,1.576,87.405,-48.855,3.302
0.185,14.232,1.586,1.590,87.372,-48.810,3.296
0.187,14.285,1.596,1.600,87.340,-48.767,3.294
0.188,14.335,1.605,1.609,87.311,-48.727,3.297
0.190,14.382,1.614,1.618,87.287,-48.688,3.307
0.191,14.428,1.624,1.626,87.270,-48.648,3.324
0.193,14.476,1.637,1.635,87.262,-48.609,3.350
0.194,14.529,1.652,1.645,87.262,-48.569,3.384
0.195,14.585,1.669,1.656,87.269,-48.529,3.424
0.197,14.646,1.686,1.669,87.280,-48.488,3.467
0.198,14.708,1.702,1.684,87.295,-48.448,3.513
0.200,14.771,1.716,1.700,87.311,-48.408,3.558
0.201,14.832,1.726,1.718,87.328,-48.369,3.602
0.203,14.890,1.732,1.738,87.343,-48.330,3.642
0.204,14.942,1.733,1.760,87.356,-48.292,3.676
0.205,14.988,1.730,1.782,87.363,-48.256,3.703
0.207,15.028,1.726,1.802,87.366,-48.220,3.721
0.208,15.062,1.721,1.821,87.363,-48.188,3.731
0.210,15.093,1.718,1.837,87.357,-48.158,3.735
0.211,15.118,1.717,1.848,87.350,-48.134,3.736
0.213,15.137,1.721,1.853,87.345,-48.116,3.737
0.214,15.148,1.730,1.853,87.343,-48.105,3.740
0.216,15.156,1.742,1.848,87.347,-48.103,3.747
0.217,15.177,1.756,1.839,87.359,-48.112,3.762
0.218,15.214,1.771,1.829,87.380,-48.131,3.786
0.220,15.273,1.784,1.818,87.413,-48.164,3.822
0.221,15.357,1.795,1.807,87.459,-48.211,3.874
0.223,15.465,1.803,1.798,87.520,-48.270,3.939
0.224,15.592,1.806,1.792,87.593,-48.340,4.018
0.226,15.736,1.807,1.789,87.677,-48.416,4.106
0.227,15.890,1.808,1.791,87.768,-48.495,4.202
0.228,16.051,1.811,1.797,87.866,-48.573,4.304
0.230,16.215,1.818,1.810,87.968,-48.648,4.408
0.231,16.378,1.831,1.828,88.073,-48.716,4.512
0.233,16.535,1.852,1.853,88.179,-48.774,4.614
0.234,16.684,1.881,1.885,88.282,-48.818,4.711
0.236,16.822,1.918,1.923,88.383,-48.844,4.801
0.237,16.948,1.960,1.965,88.478,-48.853,4.882
0.239,17.064,2.007,2.011,88.568,-48.845,4.956
0.240,17.174,2.057,2.059,88.652,-48.826,5.024
0.241,17.277,2.108,2.109,88.729,-48.797,5.086
0.243,17.374,2.159,2.159,88.799,-48.763,5.144
0.244,17.465,2.208,2.207,88.862,-48.727,5.199
0.246,17.548,2.254,2.253,88.916,-48.692,5.252
0.247,17.623,2.296,2.295,88.961,-48.662,5.304
0.249,17.690,2.331,2.330,88.997,-48.640,5.356
0.250,17.751,2.360,2.359,89.023,-48.629,5.409
0.251,17.809,2.379,2.379,89.039,-48.632,5.465
0.253,17.869,2.389,2.389,89.046,-48.648,5.523
0.254,17.933,2.388,2.388,89.045,-48.674,5.581
0.256,18.000,2.377,2.378,89.038,-48.708,5.639
0.257,18.071,2.360,2.360,89.026,-48.750,5.695
0.259,18.144,2.336,2.336,89.010,-48.795,5.749
0.260,18.216,2.308,2.308,88.992,-48.843,5.800
0.261,18.285,2.277,2.277,88.973,-48.891,5.847
0.263,18.350,2.246,2.245,88.954,-48.937,5.888
0.264,18.408,2.214,2.214,88.938,-48.979,5.924
0.266,18.456,2.185,2.185,88.924,-49.016,5.952
0.267,18.496,2.158,2.158,88.913,-49.045,5.976
0.269,18.528,2.135,2.135,88.905,-49.069,5.997
0.270,18.556,2.117,2.117,88.899,-49.086,6.018
0.272,18.583,2.105,2.105,88.895,-49.097,6.042
0.273,18.613,2.101,2.101,88.892,-49.102,6.072
0.274,18.652,2.104,2.104,88.890,-49.100,6.110
0.276,18.701,2.113,2.113,88.889,-49.093,6.159
0.277,18.766,2.127,2.127,88.888,-49.079,6.222
0.279,18.848,2.143,2.143,88.887,-49.059,6.302
0.280,18.951,2.160,2.160,88.885,-49.032,6.401
0.282,19.072,2.177,2.177,88.882,-49.001,6.518
0.283,19.207,2.192,2.192,88.878,-48.965,6.648
0.284,19.351,2.203,2.203,88.873,-48.927,6.787
0.286,19.499,2.211,2.211,88.866,-48.887,6.929
0.287,19.646,2.217,2.217,88.858,-48.847,7.071
0.289,19.788,2.221,2.221,88.849,-48.807,7.206
0.290,19.919,2.223,2.223,88.838,-48.770,7.331
0.292,20.034,2.225,2.225,88.825,-48.737,7.441
0.293,20.129,2.227,2.227,88.810,-48.708,7.531
0.295,20.200,2.229,2.229,88.794,-48.685,7.596
0.296,20.246,2.230,2.230,88.777,-48.669,7.635
0.297,20.272,2.229,2.229,88.760,-48.661,7.654
0.299,20.288,2.225,2.225,88.745,-48.662,7.658
0.300,20.302,2.217,2.217,88.735,-48.671,7.655
0.302,20.321,2.204,2.204,88.731,-48.689,7.651
0.303,20.350,2.185,2.185,88.735,-48.717,7.651
0.305,20.393,2.159,2.159,88.749,-48.756,7.662
0.306,20.456,2.128,2.128,88.776,-48.807,7.690
0.307,20.545,2.096,2.096,88.816,-48.868,7.741
0.309,20.668,2.064,2.064,88.872,-48.942,7.821
0.310,20.828,2.035,2.035,88.945,-49.029,7.935
0.312,21.021,2.012,2.012,89.032,-49.124,8.078
0.313,21.240,1.996,1.996,89.132,-49.226,8.243
0.315,21.478,1.990,1.990,89.241,-49.332,8.426
0.316,21.728,1.993,1.993,89.357,-49.438,8.621
0.318,21.983,2.002,2.002,89.477,-49.542,8.820
0.319,22.236,2.016,2.016,89.599,-49.640,9.019
0.320,22.480,2.032,2.032,89.719,-49.729,9.212
0.322,22.708,2.050,2.050,89.835,-49.806,9.392
0.323,22.913,2.068,2.068,89.945,-49.869,9.554
0.325,23.090,2.083,2.083,90.045,-49.914,9.693
0.326,23.240,2.096,2.096,90.136,-49.943,9.808
0.328,23.365,2.105,2.105,90.217,-49.959,9.903
0.329,23.469,2.111,2.111,90.287,-49.965,9.979
0.330,23.555,2.114,2.114,90.348,-49.963,10.039
0.332,23.624,2.112,2.112,90.399,-49.957,10.085
0.333,23.678,2.106,2.106,90.440,-49.949,10.120
0.335,23.719,2.096,2.096,90.470,-49.942,10.146
0.336,23.747,2.082,2.082,90.490,-49.939,10.166
0.338,23.765,2.067,2.067,90.500,-49.943,10.180
0.339,23.784,2.051,2.051,90.500,-49.956,10.194
0.341,23.811,2.037,2.037,90.491,-49.979,10.206
0.342,23.844,2.026,2.026,90.476,-50.006,10.217
0.343,23.879,2.019,2.019,90.457,-50.034,10.227
0.345,23.914,2.017,2.017,90.438,-50.061,10.236
0.346,23.942,2.020,2.020,90.420,-50.081,10.244
0.348,23.960,2.027,2.027,90.407,-50.092,10.251
0.349,23.969,2.036,2.036,90.400,-50.090,10.257
0.351,23.989,2.045,2.045,90.404,-50.071,10.262
0.352,24.032,2.054,2.054,90.420,-50.031,10.266
0.353,24.103,2.061,2.061,90.451,-49.968,10.269
0.355,24.201,2.065,2.065,90.497,-49.882,10.271
0.356,24.314,2.064,2.064,90.553,-49.783,10.276
0.358,24.432,2.056,2.057,90.613,-49.682,10.284
0.359,24.543,2.041,2.041,90.673,-49.589,10.299
0.361,24.638,2.016,2.016,90.727,-49.515,10.322
0.362,24.710,1.979,1.979,90.771,-49.469,10.356
0.364,24.765,1.929,1.929,90.799,-49.463,10.403
0.365,24.840,1.866,1.866,90.806,-49.505,10.465
0.366,24.971,1.795,1.794,90.786,-49.607,10.544
0.368,25.176,1.724,1.722,90.736,-49.780,10.643
0.369,25.463,1.660,1.658,90.651,-50.026,10.762
0.371,25.821,1.612,1.610,90.539,-50.336,10.903
0.372,26.234,1.587,1.585,90.405,-50.693,11.063
0.374,26.688,1.592,1.592,90.258,-51.083,11.242
0.375,27.167,1.634,1.636,90.103,-51.491,11.439
0.376,27.656,1.709,1.713,89.947,-51.903,11.653
0.378,28.142,1.808,1.814,89.799,-52.303,11.883
0.379,28.610,1.924,1.932,89.663,-52.678,12.129
0.381,29.048,2.049,2.056,89.549,-53.011,12.389
0.382,29.448,2.175,2.181,89.461,-53.289,12.663
0.384,29.807,2.295,2.296,89.407,-53.499,12.949
0.385,30.135,2.400,2.394,89.384,-53.644,13.242
0.386,30.442,2.492,2.478,89.388,-53.732,13.536
0.388,30.734,2.572,2.550,89.415,-53.771,13.825
0.389,31.015,2.643,2.616,89.459,-53.768,14.102
0.391,31.282,2.706,2.679,89.517,-53.733,14.361
0.392,31.534,2.764,2.744,89.585,-53.671,14.595
0.394,31.764,2.819,2.815,89.657,-53.593,14.799
0.395,31.966,2.873,2.896,89.730,-53.505,14.965
0.397,32.133,2.925,2.982,89.799,-53.415,15.089
0.398,32.260,2.973,3.069,89.860,-53.332,15.163
0.399,32.354,3.015,3.149,89.910,-53.259,15.193
0.401,32.425,3.050,3.218,89.948,-53.199,15.190
0.402,32.482,3.075,3.268,89.972,-53.154,15.164
0.404,32.529,3.089,3.293,89.982,-53.126,15.128
0.405,32.566,3.090,3.290,89.976,-53.117,15.092
0.407,32.603,3.082,3.262,89.952,-53.130,15.068
0.408,32.659,3.070,3.220,89.909,-53.167,15.066
0.409,32.753,3.060,3.172,89.847,-53.229,15.099
0.411,32.900,3.056,3.129,89.762,-53.320,15.176
0.412,33.109,3.064,3.100,89.655,-53.440,15.310
0.414,33.384,3.089,3.095,89.527,-53.589,15.502
0.415,33.711,3.136,3.122,89.384,-53.761,15.740
0.417,34.076,3.203,3.178,89.230,-53.948,16.014
0.418,34.466,3.282,3.254,89.073,-54.145,16.312
0.420,34.867,3.369,3.344,88.917,-54.345,16.622
0.421,35.264,3.456,3.438,88.768,-54.542,16.933
0.422,35.643,3.538,3.529,88.633,-54.728,17.233
0.424,35.989,3.609,3.607,88.516,-54.899,17.512
0.425,36.289,3.662,3.666,88.423,-55.047,17.756
0.427,36.529,3.699,3.706,88.361,-55.165,17.955
0.428,36.702,3.721,3.729,88.331,-55.251,18.102
0.430,36.817,3.732,3.739,88.327,-55.308,18.202
0.431,36.884,3.735,3.740,88.340,-55.339,18.260
0.432,36.917,3.733,3.736,88.362,-55.349,18.282
0.434,36.943,3.729,3.729,88.386,-55.342,18.275
0.435,36.984,3.726,3.725,88.404,-55.322,18.244
0.437,37.040,3.725,3.723,88.406,-55.294,18.195
0.438,37.112,3.727,3.725,88.386,-55.261,18.135
0.440,37.201,3.732,3.731,88.336,-55.229,18.069
0.441,37.315,3.742,3.741,88.247,-55.200,18.003
0.443,37.464,3.757,3.756,88.113,-55.179,17.943
0.444,37.646,3.777,3.776,87.939,-55.166,17.890
0.445,37.857,3.802,3.803,87.733,-55.158,17.846
0.447,38.090,3.834,3.834,87.502,-55.156,17.812
0.448,38.339,3.870,3.871,87.254,-55.158,17.789
0.450,38.598,3.911,3.912,86.996,-55.163,17.778
0.451,38.858,3.955,3.956,86.736,-55.169,17.780
0.453,39.113,4.002,4.002,86.481,-55.176,17.797
0.454,39.356,4.051,4.051,86.240,-55.182,17.829
0.455,39.583,4.101,4.101,86.019,-55.187,17.877
0.457,39.787,4.152,4.152,85.826,-55.189,17.944
0.458,39.971,4.203,4.203,85.661,-55.187,18.027
0.460,40.143,4.255,4.255,85.522,-55.182,18.127
0.461,40.307,4.306,4.306,85.406,-55.174,18.244
0.463,40.470,4.356,4.356,85.311,-55.163,18.375
0.464,40.637,4.405,4.405,85.232,-55.148,18.521
0.466,40.809,4.453,4.453,85.168,-55.130,18.681
0.467,40.991,4.500,4.500,85.116,-55.109,18.853
0.468,41.182,4.548,4.548,85.073,-55.084,19.038
0.470,41.384,4.598,4.598,85.037,-55.056,19.234
0.471,41.595,4.652,4.652,85.004,-55.025,19.441
0.473,41.815,4.711,4.711,84.973,-54.992,19.656
0.474,42.039,4.777,4.777,84.944,-54.957,19.875
0.476,42.262,4.851,4.851,84.917,-54.923,20.094
0.477,42.481,4.931,4.931,84.892,-54.892,20.310
0.478,42.691,5.013,5.013,84.870,-54.866,20.517
0.480,42.888,5.091,5.091,84.849,-54.846,20.712
0.481,43.068,5.162,5.162,84.831,-54.833,20.890
0.483,43.227,5.220,5.220,84.815,-54.830,21.048
0.484,43.361,5.260,5.260,84.801,-54.839,21.181
0.486,43.468,5.279,5.279,84.789,-54.860,21.286
0.487,43.551,5.277,5.277,84.779,-54.895,21.360
0.489,43.618,5.259,5.259,84.767,-54.941,21.408
0.490,43.679,5.230,5.230,84.752,-54.993,21.434
0.491,43.740,5.197,5.197,84.731,-55.050,21.442
0.493,43.806,5.163,5.163,84.700,-55.108,21.437
0.494,43.877,5.136,5.136,84.658,-55.164,21.424
0.496,43.955,5.120,5.120,84.602,-55.215,21.407
0.497,44.041,5.115,5.115,84.528,-55.257,21.391
0.499,44.140,5.118,5.118,84.435,-55.287,21.379
0.500,44.257,5.124,5.124,84.319,-55.303,21.376
0.501,44.397,5.131,5.131,84.180,-55.303,21.387
0.503,44.560,5.133,5.133,84.019,-55.290,21.411
0.504,44.744,5.126,5.126,83.840,-55.271,21.449
0.506,44.945,5.107,5.107,83.646,-55.251,21.500
0.507,45.159,5.075,5.075,83.442,-55.237,21.564
0.509,45.384,5.033,5.033,83.231,-55.233,21.641
0.510,45.617,4.985,4.985,83.016,-55.245,21.730
0.511,45.858,4.932,4.932,82.801,-55.279,21.833
0.513,46.107,4.880,4.880,82.589,-55.341,21.947
0.514,46.366,4.830,4.830,82.384,-55.437,22.074
0.516,46.640,4.786,4.786,82.190,-55.571,22.213
0.517,46.929,4.749,4.749,82.007,-55.739,22.361
0.519,47.232,4.720,4.720,81.835,-55.934,22.516
0.520,47.542,4.697,4.697,81.673,-56.147,22.674
0.522,47.854,4.680,4.680,81.523,-56.369,22.833
0.523,48.161,4.668,4.668,81.383,-56.594,22.988
0.524,48.456,4.662,4.662,81.254,-56.812,23.138
0.526,48.731,4.661,4.661,81.135,-57.016,23.279
0.527,48.979,4.663,4.663,81.026,-57.198,23.408
0.529,49.192,4.669,4.669,80.927,-57.348,23.522
0.530,49.365,4.678,4.678,80.837,-57.461,23.618
0.532,49.498,4.687,4.687,80.758,-57.534,23.695
0.533,49.598,4.697,4.697,80.689,-57.576,23.756
0.534,49.674,4.706,4.706,80.632,-57.593,23.801
0.536,49.730,4.714,4.714,80.586,-57.591,23.834
0.537,49.772,4.720,4.720,80.552,-57.579,23.855
0.539,49.801,4.724,4.724,80.531,-57.562,23.866
0.540,49.818,4.727,4.727,80.524,-57.547,23.870
0.542,49.826,4.728,4.728,80.530,-57.542,23.869
0.543,49.850,4.727,4.727,80.551,-57.554,23.863
0.545,49.901,4.726,4.726,80.587,-57.589,23.855
0.546,49.979,4.723,4.723,80.636,-57.649,23.848
0.547,50.077,4.720,4.720,80.692,-57.729,23.844
0.549,50.188,4.716,4.716,80.750,-57.823,23.846
0.550,50.303,4.712,4.712,80.804,-57.924,23.857
0.552,50.416,4.708,4.708,80.847,-58.026,23.882
0.553,50.523,4.703,4.703,80.873,-58.122,23.922
0.555,50.626,4.699,4.699,80.876,-58.206,23.980
0.556,50.733,4.695,4.695,80.850,-58.272,24.061
0.557,50.861,4.692,4.692,80.790,-58.313,24.167
0.559,51.030,4.690,4.690,80.688,-58.322,24.300
0.560,51.250,4.690,4.690,80.542,-58.296,24.463
0.562,51.517,4.693,4.693,80.359,-58.239,24.650
0.563,51.820,4.697,4.697,80.150,-58.157,24.853
0.565,52.148,4.706,4.706,79.922,-58.055,25.065
0.566,52.487,4.717,4.717,79.686,-57.940,25.280
0.568,52.825,4.733,4.733,79.451,-57.817,25.489
0.569,53.149,4.751,4.751,79.227,-57.692,25.687
0.570,53.447,4.770,4.770,79.022,-57.571,25.866
0.572,53.704,4.789,4.789,78.847,-57.460,26.019
0.573,53.909,4.806,4.806,78.711,-57.365,26.139
0.575,54.050,4.821,4.821,78.622,-57.290,26.219
0.576,54.135,4.831,4.831,78.576,-57.236,26.264
0.578,54.176,4.837,4.837,78.563,-57.200,26.281
0.579,54.200,4.839,4.839,78.574,-57.180,26.275
0.580,54.235,4.838,4.838,78.602,-57.175,26.254
0.582,54.279,4.836,4.836,78.636,-57.181,26.226
0.583,54.325,4.832,4.832,78.667,-57.196,26.196
0.585,54.364,4.828,4.828,78.688,-57.218,26.172
0.586,54.393,4.825,4.825,78.688,-57.246,26.162
0.588,54.436,4.824,4.824,78.658,-57.276,26.171
0.589,54.518,4.824,4.824,78.591,-57.306,26.206
0.591,54.643,4.824,4.824,78.486,-57.336,26.268
0.592,54.804,4.825,4.825,78.352,-57.364,26.352
0.593,54.991,4.826,4.826,78.196,-57.391,26.452
0.595,55.196,4.826,4.826,78.026,-57.416,26.564
0.596,55.409,4.825,4.825,77.850,-57.439,26.682
0.598,55.621,4.823,4.823,77.677,-57.458,26.802
0.599,55.823,4.821,4.821,77.513,-57.475,26.919
0.601,56.005,4.819,4.819,77.367,-57.488,27.027
0.602,56.159,4.817,4.817,77.246,-57.496,27.121
0.603,56.274,4.817,4.817,77.159,-57.501,27.197
0.605,56.350,4.819,4.819,77.107,-57.502,27.252
0.606,56.393,4.824,4.824,77.085,-57.501,27.289
0.608,56.415,4.832,4.832,77.084,-57.500,27.311
0.609,56.432,4.840,4.840,77.099,-57.502,27.319
0.611,56.456,4.846,4.846,77.122,-57.508,27.318
0.612,56.485,4.849,4.849,77.146,-57.522,27.308
0.614,56.517,4.846,4.846,77.164,-57.544,27.294
0.615,56.555,4.834,4.834,77.170,-57.578,27.277
