"T","Distance","Radius","FreeRadius","X","Y","Z"
0.000,0.000,0.860,0.860,239.130,227.965,241.288
0.002,0.220,0.883,0.883,239.055,228.080,241.115
0.004,0.439,0.910,0.910,238.979,228.195,240.945
0.006,0.653,0.943,0.943,238.904,228.309,240.780
0.008,0.862,0.986,0.986,238.830,228.422,240.621
0.010,1.063,1.041,1.041,238.757,228.534,240.472
0.012,1.254,1.112,1.112,238.685,228.645,240.334
0.013,1.434,1.194,1.194,238.615,228.754,240.209
0.015,1.601,1.277,1.277,238.546,228.862,240.101
0.017,1.755,1.353,1.353,238.479,228.967,240.010
0.019,1.895,1.413,1.413,238.415,229.071,239.941
0.021,2.022,1.449,1.449,238.353,229.171,239.894
0.023,2.139,1.460,1.460,238.293,229.268,239.869
0.025,2.249,1.456,1.456,238.234,229.360,239.862
0.027,2.353,1.446,1.446,238.174,229.445,239.868
0.029,2.453,1.438,1.438,238.111,229.521,239.883
0.031,2.549,1.442,1.442,238.044,229.588,239.902
0.033,2.642,1.462,1.462,237.971,229.642,239.920
0.035,2.732,1.491,1.491,237.891,229.683,239.932
0.037,2.825,1.521,1.521,237.802,229.708,239.935
0.038,2.925,1.544,1.544,237.703,229.716,239.924
0.040,3.040,1.552,1.552,237.593,229.706,239.893
0.042,3.179,1.540,1.540,237.469,229.675,239.839
0.044,3.342,1.514,1.514,237.333,229.626,239.763
0.046,3.526,1.486,1.486,237.188,229.558,239.671
0.048,3.728,1.463,1.463,237.037,229.476,239.565
0.050,3.944,1.457,1.457,236.882,229.379,239.450
0.052,4.168,1.475,1.475,236.726,229.272,239.331
0.054,4.397,1.514,1.514,236.571,229.154,239.211
0.056,4.625,1.564,1.564,236.419,229.029,239.096
0.058,4.848,1.615,1.615,236.275,228.898,238.988
0.060,5.061,1.658,1.658,236.139,228.763,238.893
0.062,5.262,1.683,1.683,236.015,228.626,238.814
0.063,5.448,1.688,1.688,235.904,228.489,238.754
0.065,5.619,1.680,1.680,235.805,228.356,238.713
0.067,5.776,1.668,1.668,235.716,228.229,238.687
0.069,5.919,1.659,1.659,235.634,228.112,238.676
0.071,6.048,1.661,1.661,235.559,228.008,238.678
0.073,6.162,1.677,1.677,235.487,227.920,238.690
0.075,6.262,1.701,1.701,235.418,227.851,238.711
0.077,6.350,1.727,1.727,235.349,227.805,238.740
0.079,6.431,1.749,1.749,235.278,227.785,238.773
0.081,6.514,1.760,1.760,235.203,227.794,238.810
0.083,6.612,1.756,1.756,235.123,227.834,238.849
0.085,6.730,1.741,1.741,235.037,227.905,238.889
0.087,6.867,1.721,1.721,234.948,228.000,238.928
0.088,7.018,1.703,1.703,234.856,228.114,238.966
0.090,7.178,1.694,1.694,234.764,228.241,239.003
0.092,7.343,1.699,1.699,234.674,228.374,239.038
0.094,7.507,1.718,1.718,234.586,228.509,239.069
0.096,7.664,1.745,1.745,234.502,228.638,239.097
0.098,7.808,1.777,1.777,234.425,228.757,239.121
0.100,7.933,1.809,1.809,234.355,228.859,239.139
0.102,8.033,1.835,1.835,234.295,228.939,239.152
0.104,8.106,1.855,1.855,234.246,228.992,239.159
0.106,8.154,1.869,1.869,234.207,229.019,239.160
0.108,8.186,1.878,1.878,234.175,229.026,239.157
0.110,8.215,1.883,1.883,234.149,229.015,239.150
0.112,8.249,1.885,1.885,234.128,228.991,239.142
0.113,8.289,1.885,1.885,234.109,228.956,239.132
0.115,8.334,1.884,1.884,234.090,228.916,239.122
0.117,8.382,1.881,1.881,234.070,228.874,239.113
0.119,8.429,1.878,1.878,234.047,228.834,239.107
0.121,8.473,1.875,1.875,234.019,228.799,239.103
0.123,8.516,1.872,1.872,233.985,228.774,239.104
0.125,8.560,1.870,1.870,233.943,228.761,239.110
0.127,8.609,1.869,1.869,233.895,228.757,239.120
0.129,8.663,1.869,1.869,233.842,228.761,239.132
0.131,8.723,1.870,1.870,233.786,228.772,239.147
0.133,8.785,1.874,1.874,233.728,228.789,239.164
0.135,8.850,1.879,1.879,233.669,228.809,239.181
0.137,8.914,1.885,1.885,233.611,228.830,239.198
0.138,8.977,1.894,1.894,233.554,228.852,239.213
0.140,9.036,1.903,1.903,233.501,228.873,239.227
0.142,9.089,1.914,1.914,233.452,228.891,239.238
0.144,9.134,1.925,1.925,233.409,228.904,239.245
0.146,9.173,1.937,1.937,233.372,228.913,239.249
0.148,9.206,1.949,1.949,233.339,228.918,239.251
0.150,9.235,1.960,1.960,233.310,228.922,239.251
0.152,9.262,1.971,1.971,233.283,228.923,239.249
0.154,9.288,1.981,1.981,233.258,228.925,239.248
0.156,9.313,1.990,1.990,233.232,228.927,239.246
0.158,9.340,1.997,1.997,233.206,228.930,239.246
0.160,9.368,2.002,2.002,233.179,228.936,239.248
0.162,9.401,2.005,2.005,233.148,228.946,239.253
0.163,9.439,2.005,2.005,233.113,228.960,239.260
0.165,9.484,2.003,2.003,233.074,228.979,239.272
0.167,9.536,2.002,2.002,233.031,229.003,239.287
0.169,9.593,2.002,2.002,232.985,229.032,239.304
0.171,9.654,2.003,2.003,232.936,229.065,239.322
0.173,9.719,2.009,2.009,232.885,229.101,239.341
0.175,9.787,2.017,2.017,232.833,229.141,239.359
0.177,9.856,2.026,2.026,232.782,229.183,239.375
0.179,9.926,2.033,2.033,232.730,229.228,239.389
0.181,9.995,2.038,2.038,232.680,229.275,239.399
0.183,10.064,2.038,2.038,232.632,229.324,239.405
0.185,10.131,2.034,2.034,232.587,229.374,239.406
0.187,10.197,2.030,2.030,232.544,229.424,239.402
0.188,10.263,2.029,2.029,232.503,229.475,239.397
0.190,10.327,2.036,2.036,232.463,229.525,239.392
0.192,10.392,2.055,2.055,232.422,229.576,239.390
0.194,10.457,2.086,2.086,232.381,229.625,239.393
0.196,10.523,2.124,2.124,232.336,229.672,239.405
0.198,10.593,2.161,2.161,232.289,229.718,239.428
0.200,10.669,2.190,2.190,232.237,229.762,239.464
0.202,10.757,2.206,2.206,232.179,229.803,239.515
0.204,10.859,2.203,2.203,232.115,229.841,239.585
0.206,10.978,2.186,2.186,232.044,229.875,239.675
0.208,11.115,2.165,2.165,231.965,229.907,239.781
0.210,11.266,2.148,2.148,231.876,229.937,239.900
0.212,11.427,2.143,2.143,231.778,229.966,240.024
0.213,11.597,2.159,2.159,231.669,229.995,240.151
0.215,11.771,2.191,2.191,231.549,230.025,240.274
0.217,11.949,2.232,2.232,231.416,230.057,240.389
0.219,12.130,2.273,2.273,231.271,230.091,240.490
0.221,12.313,2.304,2.304,231.112,230.130,240.573
0.223,12.502,2.318,2.318,230.938,230.173,240.632
0.225,12.700,2.314,2.314,230.749,230.222,240.663
0.227,12.911,2.305,2.305,230.545,230.276,240.663
0.229,13.135,2.301,2.301,230.330,230.335,240.637
0.231,13.371,2.316,2.316,230.107,230.397,240.589
0.233,13.614,2.361,2.361,229.881,230.459,240.524
0.235,13.861,2.441,2.441,229.655,230.522,240.447
0.237,14.107,2.548,2.548,229.433,230.582,240.362
0.238,14.346,2.671,2.671,229.219,230.639,240.273
0.240,14.572,2.799,2.799,229.016,230.691,240.186
0.242,14.782,2.921,2.921,228.828,230.735,240.105
0.244,14.968,3.027,3.027,228.659,230.772,240.035
0.246,15.127,3.116,3.116,228.512,230.799,239.980
0.248,15.258,3.190,3.190,228.389,230.816,239.941
0.250,15.364,3.250,3.250,228.286,230.825,239.917
0.252,15.449,3.296,3.296,228.202,230.828,239.905
0.254,15.516,3.332,3.332,228.135,230.826,239.904
0.256,15.568,3.356,3.356,228.083,230.820,239.913
0.258,15.611,3.370,3.370,228.045,230.812,239.930
0.260,15.648,3.374,3.374,228.018,230.804,239.954
0.262,15.682,3.369,3.369,228.001,230.796,239.982
0.263,15.716,3.355,3.355,227.991,230.791,240.014
0.265,15.750,3.335,3.335,227.987,230.789,240.048
0.267,15.784,3.309,3.309,227.987,230.792,240.082
0.269,15.821,3.283,3.283,227.989,230.796,240.119
0.271,15.860,3.257,3.257,227.992,230.797,240.158
0.273,15.905,3.235,3.235,227.994,230.792,240.202
0.275,15.957,3.218,3.218,227.995,230.776,240.252
0.277,16.023,3.202,3.202,227.991,230.746,240.310
0.279,16.105,3.184,3.184,227.982,230.697,240.376
0.281,16.211,3.159,3.159,227.967,230.626,240.453
0.283,16.345,3.123,3.123,227.944,230.529,240.541
0.285,16.511,3.073,3.073,227.910,230.402,240.643
0.287,16.714,3.013,3.013,227.866,230.241,240.759
0.288,16.955,2.949,2.949,227.811,230.046,240.890
0.290,17.226,2.886,2.886,227.747,229.824,241.032
0.292,17.521,2.829,2.829,227.677,229.581,241.182
0.294,17.833,2.783,2.783,227.602,229.321,241.339
0.296,18.156,2.752,2.752,227.526,229.051,241.499
0.298,18.481,2.733,2.733,227.451,228.778,241.659
0.300,18.803,2.727,2.727,227.378,228.507,241.816
0.302,19.115,2.733,2.733,227.311,228.243,241.969
0.304,19.410,2.752,2.752,227.251,227.994,242.113
0.306,19.680,2.782,2.782,227.202,227.764,242.247
0.308,19.920,2.820,2.820,227.164,227.559,242.367
0.310,20.131,2.866,2.866,227.137,227.380,242.474
0.312,20.314,2.915,2.915,227.120,227.224,242.569
0.313,20.471,2.967,2.967,227.111,227.091,242.651
0.315,20.606,3.018,3.018,227.108,226.977,242.723
0.317,20.719,3.067,3.067,227.110,226.881,242.784
0.319,20.814,3.110,3.110,227.114,226.801,242.836
0.321,20.892,3.144,3.144,227.120,226.737,242.878
0.323,20.955,3.167,3.167,227.124,226.684,242.913
0.325,21.005,3.177,3.177,227.127,226.643,242.941
0.327,21.043,3.175,3.175,227.125,226.611,242.962
0.329,21.073,3.167,3.167,227.118,226.585,242.977
0.331,21.098,3.156,3.156,227.107,226.565,242.985
0.333,21.119,3.145,3.145,227.094,226.548,242.988
0.335,21.140,3.138,3.138,227.081,226.532,242.984
0.337,21.165,3.135,3.135,227.068,226.515,242.972
0.338,21.194,3.135,3.135,227.057,226.495,242.954
0.340,21.231,3.134,3.134,227.050,226.469,242.928
0.342,21.279,3.132,3.132,227.048,226.435,242.895
0.344,21.338,3.124,3.124,227.053,226.393,242.853
0.346,21.413,3.112,3.112,227.066,226.338,242.804
0.348,21.505,3.096,3.096,227.088,226.270,242.746
0.350,21.613,3.077,3.077,227.119,226.189,242.681
0.352,21.734,3.057,3.057,227.154,226.096,242.613
0.354,21.863,3.036,3.036,227.193,225.994,242.543
0.356,21.998,3.016,3.016,227.231,225.885,242.474
0.358,22.133,2.992,2.992,227.265,225.771,242.409
0.360,22.267,2.964,2.964,227.293,225.654,242.352
0.362,22.396,2.927,2.927,227.312,225.536,242.304
0.363,22.518,2.879,2.879,227.318,225.418,242.269
0.365,22.635,2.819,2.819,227.309,225.304,242.249
0.367,22.747,2.749,2.749,227.281,225.195,242.247
0.369,22.862,2.674,2.674,227.233,225.093,242.265
0.371,22.984,2.601,2.601,227.166,224.996,242.301
0.373,23.118,2.534,2.534,227.083,224.905,242.354
0.375,23.264,2.477,2.477,226.986,224.819,242.420
0.377,23.422,2.432,2.432,226.878,224.735,242.497
0.379,23.588,2.394,2.394,226.761,224.653,242.584
0.381,23.762,2.361,2.361,226.638,224.573,242.677
0.383,23.941,2.331,2.331,226.511,224.493,242.773
0.385,24.122,2.299,2.299,226.383,224.411,242.872
0.387,24.302,2.265,2.265,226.256,224.328,242.969
0.388,24.480,2.231,2.231,226.133,224.242,243.064
0.390,24.653,2.198,2.198,226.015,224.153,243.153
0.392,24.822,2.169,2.169,225.900,224.059,243.236
0.394,24.987,2.146,2.146,225.789,223.962,243.310
0.396,25.150,2.130,2.130,225.679,223.861,243.375
0.398,25.310,2.120,2.120,225.571,223.755,243.428
0.400,25.470,2.115,2.115,225.462,223.646,243.469
0.402,25.631,2.115,2.115,225.351,223.532,243.495
0.404,25.796,2.117,2.117,225.238,223.413,243.506
0.406,25.965,2.122,2.122,225.122,223.289,243.500
0.408,26.143,2.129,2.129,225.001,223.161,243.475
0.410,26.332,2.138,2.138,224.875,223.028,243.430
0.412,26.532,2.149,2.149,224.745,222.890,243.368
0.413,26.739,2.161,2.161,224.614,222.750,243.292
0.415,26.950,2.176,2.176,224.484,222.607,243.206
0.417,27.163,2.190,2.190,224.357,222.462,243.114
0.419,27.373,2.202,2.202,224.238,222.318,243.019
0.421,27.577,2.209,2.209,224.128,222.174,242.926
0.423,27.771,2.209,2.209,224.029,222.031,242.838
0.425,27.952,2.199,2.199,223.945,221.892,242.759
0.427,28.118,2.179,2.179,223.878,221.755,242.693
0.429,28.266,2.154,2.154,223.831,221.624,242.643
0.431,28.398,2.127,2.127,223.804,221.498,242.613
0.433,28.520,2.102,2.102,223.795,221.377,242.599
0.435,28.635,2.085,2.085,223.801,221.262,242.600
0.437,28.746,2.078,2.078,223.818,221.153,242.612
0.438,28.855,2.076,2.076,223.841,221.049,242.633
0.440,28.961,2.077,2.077,223.869,220.951,242.661
0.442,29.063,2.076,2.076,223.898,220.858,242.693
0.444,29.160,2.070,2.070,223.923,220.771,242.727
0.446,29.249,2.055,2.055,223.941,220.690,242.759
0.448,29.330,2.034,2.034,223.949,220.614,242.787
0.450,29.404,2.011,2.011,223.944,220.544,242.809
0.452,29.473,1.988,1.988,223.924,220.480,242.824
0.454,29.542,1.970,1.970,223.891,220.420,242.834
0.456,29.614,1.961,1.961,223.845,220.365,242.841
0.458,29.691,1.961,1.961,223.788,220.313,242.846
0.460,29.775,1.967,1.967,223.721,220.264,242.852
0.462,29.864,1.977,1.977,223.644,220.218,242.859
0.463,29.960,1.991,1.991,223.559,220.174,242.870
0.465,30.063,2.004,2.004,223.468,220.132,242.887
0.467,30.171,2.017,2.017,223.371,220.090,242.910
0.469,30.286,2.032,2.032,223.269,220.048,242.943
0.471,30.407,2.048,2.048,223.163,220.006,242.985
0.473,30.533,2.068,2.068,223.056,219.963,243.036
0.475,30.660,2.092,2.092,222.951,219.916,243.090
0.477,30.787,2.122,2.122,222.849,219.866,243.145
0.479,30.910,2.153,2.153,222.753,219.810,243.198
0.481,31.027,2.182,2.182,222.666,219.747,243.245
0.483,31.137,2.206,2.206,222.590,219.676,243.282
0.485,31.242,2.221,2.221,222.528,219.595,243.307
0.487,31.345,2.224,2.224,222.481,219.504,243.315
0.488,31.453,2.216,2.216,222.453,219.401,243.304
0.490,31.574,2.200,2.200,222.445,219.284,243.270
0.492,31.717,2.178,2.178,222.459,219.155,243.213
0.494,31.879,2.153,2.153,222.491,219.016,243.136
0.496,32.056,2.127,2.127,222.536,218.871,243.044
0.498,32.244,2.102,2.102,222.592,218.724,242.942
0.500,32.435,2.080,2.080,222.655,218.578,242.834
0.502,32.625,2.062,2.062,222.721,218.438,242.725
0.504,32.807,2.050,2.050,222.787,218.306,242.619
0.506,32.973,2.045,2.045,222.848,218.187,242.520
0.508,33.117,2.048,2.048,222.901,218.083,242.434
0.510,33.234,2.056,2.056,222.943,218.000,242.365
0.512,33.316,2.067,2.067,222.969,217.939,242.316
0.513,33.366,2.078,2.078,222.982,217.900,242.288
0.515,33.391,2.088,2.088,222.984,217.879,242.275
0.517,33.400,2.094,2.094,222.977,217.872,242.275
0.519,33.414,2.098,2.098,222.967,217.874,242.283
0.521,33.433,2.099,2.099,222.955,217.882,242.296
0.523,33.453,2.097,2.097,222.944,217.892,242.309
0.525,33.467,2.094,2.094,222.939,217.899,242.319
0.527,33.471,2.089,2.089,222.941,217.901,242.322
0.529,33.489,2.083,2.083,222.955,217.892,242.315
0.531,33.532,2.079,2.079,222.984,217.869,242.292
0.533,33.604,2.076,2.076,223.029,217.829,242.253
0.535,33.701,2.078,2.078,223.088,217.775,242.199
0.537,33.816,2.083,2.083,223.158,217.710,242.134
0.538,33.946,2.093,2.093,223.236,217.636,242.062
0.540,34.083,2.105,2.105,223.320,217.558,241.987
0.542,34.222,2.116,2.116,223.405,217.478,241.911
0.544,34.358,2.127,2.127,223.490,217.399,241.839
0.546,34.486,2.133,2.133,223.570,217.325,241.774
0.548,34.598,2.135,2.135,223.644,217.258,241.720
0.550,34.692,2.135,2.135,223.708,217.203,241.681
0.552,34.761,2.135,2.135,223.758,217.162,241.659
0.554,34.807,2.135,2.135,223.796,217.134,241.653
0.556,34.838,2.139,2.139,223.821,217.118,241.659
0.558,34.858,2.148,2.148,223.837,217.110,241.668
0.560,34.871,2.157,2.157,223.845,217.106,241.676
0.562,34.874,2.165,2.165,223.848,217.103,241.676
0.563,34.889,2.169,2.169,223.847,217.099,241.662
0.565,34.926,2.165,2.165,223.845,217.089,241.627
0.567,34.990,2.152,2.152,223.844,217.071,241.565
0.569,35.089,2.134,2.134,223.845,217.042,241.471
0.571,35.230,2.115,2.115,223.851,216.998,241.337
0.573,35.419,2.102,2.102,223.863,216.936,241.159
0.575,35.649,2.100,2.100,223.882,216.859,240.942
0.577,35.913,2.116,2.116,223.904,216.769,240.696
0.579,36.200,2.148,2.148,223.930,216.670,240.427
0.581,36.501,2.190,2.190,223.957,216.565,240.146
0.583,36.807,2.238,2.238,223.985,216.457,239.862
0.585,37.108,2.284,2.284,224.012,216.350,239.582
0.587,37.395,2.324,2.324,224.036,216.246,239.315
0.588,37.658,2.355,2.355,224.056,216.150,239.071
0.590,37.888,2.378,2.378,224.071,216.064,238.858
0.592,38.077,2.394,2.394,224.079,215.991,238.684
0.594,38.218,2.405,2.405,224.081,215.934,238.555
0.596,38.318,2.413,2.413,224.076,215.892,238.464
0.598,38.382,2.418,2.418,224.066,215.864,238.408
0.600,38.418,2.423,2.423,224.052,215.849,238.379
0.602,38.436,2.427,2.427,224.035,215.847,238.372
0.604,38.458,2.433,2.433,224.017,215.856,238.381
0.606,38.492,2.442,2.442,223.999,215.876,238.402
0.608,38.535,2.453,2.453,223.981,215.906,238.427
0.610,38.583,2.465,2.465,223.966,215.944,238.452
0.612,38.635,2.474,2.474,223.954,215.991,238.470
0.613,38.690,2.475,2.475,223.945,216.045,238.476
0.615,38.748,2.465,2.465,223.941,216.103,238.470
0.617,38.807,2.441,2.441,223.938,216.159,238.453
0.619,38.863,2.405,2.405,223.935,216.208,238.426
0.621,38.913,2.366,2.366,223.930,216.246,238.393
0.623,38.957,2.332,2.332,223.922,216.266,238.355
0.625,39.001,2.311,2.311,223.908,216.263,238.313
0.627,39.057,2.312,2.312,223.886,216.233,238.271
0.629,39.139,2.337,2.337,223.855,216.170,238.229
0.631,39.255,2.377,2.377,223.813,216.068,238.191
0.633,39.414,2.423,2.423,223.758,215.923,238.157
0.635,39.619,2.467,2.467,223.689,215.732,238.130
0.637,39.864,2.498,2.498,223.609,215.502,238.109
0.638,40.140,2.513,2.513,223.519,215.241,238.094
0.640,40.438,2.518,2.518,223.424,214.959,238.084
0.642,40.748,2.520,2.520,223.326,214.665,238.080
0.644,41.061,2.528,2.528,223.229,214.367,238.080
0.646,41.368,2.551,2.551,223.135,214.075,238.084
0.648,41.658,2.595,2.595,223.047,213.798,238.091
0.650,41.924,2.656,2.656,222.969,213.545,238.102
0.652,42.154,2.725,2.725,222.904,213.324,238.115
0.654,42.340,2.793,2.793,222.853,213.146,238.131
0.656,42.479,2.853,2.853,222.819,213.012,238.148
0.658,42.577,2.894,2.894,222.800,212.919,238.166
0.660,42.638,2.917,2.917,222.792,212.861,238.185
0.662,42.670,2.924,2.924,222.794,212.834,238.203
0.663,42.690,2.919,2.919,222.805,212.834,238.221
0.665,42.721,2.908,2.908,222.821,212.854,238.237
0.667,42.766,2.892,2.892,222.840,212.892,238.251
0.669,42.820,2.876,2.876,222.861,212.941,238.262
0.671,42.881,2.860,2.860,222.882,212.997,238.270
0.673,42.942,2.844,2.844,222.900,213.056,238.274
0.675,43.000,2.830,2.830,222.913,213.112,238.273
0.677,43.050,2.817,2.817,222.921,213.162,238.270
0.679,43.092,2.807,2.807,222.925,213.203,238.266
0.681,43.122,2.802,2.802,222.926,213.233,238.264
0.683,43.137,2.801,2.801,222.924,213.247,238.266
0.685,43.147,2.807,2.807,222.920,213.244,238.275
0.687,43.177,2.821,2.821,222.915,213.221,238.292
0.688,43.232,2.844,2.844,222.910,213.173,238.321
0.690,43.318,2.874,2.874,222.904,213.099,238.363
0.692,43.436,2.906,2.906,222.899,212.996,238.421
0.694,43.593,2.936,2.936,222.896,212.859,238.497
0.696,43.787,2.961,2.961,222.895,212.690,238.592
0.698,44.013,2.976,2.976,222.896,212.491,238.700
0.700,44.263,2.986,2.986,222.898,212.269,238.815
0.702,44.532,2.997,2.997,222.903,212.027,238.931
0.704,44.811,3.018,3.018,222.908,211.771,239.044
0.706,45.095,3.056,3.056,222.915,211.507,239.146
0.708,45.377,3.121,3.121,222.922,211.238,239.232
0.710,45.653,3.212,3.212,222.931,210.970,239.297
0.712,45.917,3.321,3.321,222.940,210.709,239.333
0.713,46.167,3.436,3.436,222.950,210.458,239.337
0.715,46.405,3.546,3.546,222.960,210.224,239.301
0.717,46.633,3.641,3.641,222.970,210.008,239.228
0.719,46.857,3.712,3.712,222.981,209.810,239.124
0.721,47.077,3.764,3.764,222.992,209.630,238.998
0.723,47.292,3.802,3.802,223.004,209.469,238.856
0.725,47.499,3.833,3.833,223.017,209.326,238.707
0.727,47.695,3.861,3.861,223.032,209.201,238.557
0.729,47.874,3.892,3.892,223.047,209.095,238.413
0.731,48.031,3.925,3.925,223.064,209.008,238.284
0.733,48.160,3.957,3.957,223.083,208.939,238.177
0.735,48.255,3.985,3.985,223.103,208.888,238.098
0.737,48.314,4.005,4.005,223.125,208.856,238.054
0.738,48.345,4.016,4.016,223.147,208.839,238.040
0.740,48.368,4.018,4.018,223.168,208.835,238.048
0.742,48.398,4.014,4.014,223.186,208.840,238.071
0.744,48.434,4.008,4.008,223.199,208.852,238.103
0.746,48.471,4.004,4.004,223.206,208.867,238.135
0.748,48.501,4.005,4.005,223.205,208.882,238.161
0.750,48.521,4.013,4.013,223.193,208.894,238.174
0.752,48.546,4.022,4.022,223.171,208.900,238.165
0.754,48.597,4.028,4.028,223.136,208.896,238.128
0.756,48.686,4.024,4.024,223.085,208.881,238.055
0.758,48.818,4.006,4.006,223.020,208.852,237.945
0.760,48.985,3.971,3.971,222.943,208.812,237.802
0.762,49.184,3.924,3.924,222.857,208.763,237.631
0.763,49.406,3.874,3.874,222.763,208.705,237.437
0.765,49.648,3.827,3.827,222.665,208.643,237.225
0.767,49.901,3.791,3.791,222.565,208.576,237.002
0.769,50.161,3.772,3.772,222.466,208.508,236.771
0.771,50.421,3.769,3.769,222.371,208.441,236.539
0.773,50.675,3.777,3.777,222.283,208.376,236.310
0.775,50.917,3.791,3.791,222.203,208.316,236.089
0.777,51.141,3.807,3.807,222.135,208.262,235.883
0.779,51.348,3.819,3.819,222.078,208.214,235.690
0.781,51.538,3.828,3.828,222.031,208.169,235.511
0.783,51.716,3.835,3.835,221.994,208.126,235.343
0.785,51.882,3.844,3.844,221.965,208.083,235.185
