"T","Distance","Radius","FreeRadius","X","Y","Z"
0.000,0.000,0.846,0.846,239.675,227.853,241.827
0.001,0.169,0.873,0.873,239.811,227.931,241.890
0.003,0.336,0.900,0.900,239.946,228.009,241.953
0.004,0.500,0.927,0.927,240.077,228.086,242.013
0.006,0.658,0.953,0.953,240.203,228.160,242.072
0.007,0.808,0.979,0.979,240.322,228.233,242.127
0.009,0.948,1.004,1.004,240.433,228.303,242.178
0.010,1.078,1.028,1.028,240.534,228.369,242.225
0.012,1.194,1.052,1.052,240.623,228.431,242.266
0.013,1.295,1.073,1.073,240.698,228.489,242.301
0.015,1.380,1.093,1.093,240.759,228.541,242.330
0.016,1.448,1.110,1.110,240.802,228.588,242.350
0.018,1.501,1.124,1.124,240.832,228.631,242.363
0.019,1.545,1.135,1.135,240.850,228.670,242.369
0.021,1.585,1.141,1.141,240.863,228.708,242.370
0.022,1.624,1.144,1.144,240.873,228.746,242.367
0.024,1.667,1.145,1.145,240.886,228.787,242.360
0.025,1.716,1.147,1.147,240.904,228.831,242.349
0.027,1.775,1.151,1.151,240.934,228.881,242.337
0.028,1.848,1.159,1.159,240.977,228.938,242.325
0.030,1.940,1.175,1.175,241.040,229.003,242.312
0.031,2.055,1.198,1.198,241.125,229.080,242.300
0.033,2.195,1.230,1.230,241.235,229.167,242.289
0.034,2.356,1.270,1.270,241.365,229.261,242.281
0.036,2.532,1.318,1.318,241.511,229.358,242.273
0.037,2.717,1.371,1.371,241.670,229.454,242.267
0.039,2.908,1.430,1.430,241.837,229.546,242.263
0.040,3.099,1.493,1.493,242.008,229.630,242.259
0.042,3.286,1.559,1.559,242.180,229.702,242.258
0.043,3.463,1.628,1.628,242.348,229.759,242.257
0.045,3.627,1.695,1.695,242.508,229.797,242.258
0.046,3.777,1.760,1.760,242.657,229.811,242.260
0.048,3.910,1.820,1.820,242.790,229.800,242.263
0.049,4.034,1.873,1.873,242.908,229.766,242.268
0.051,4.150,1.917,1.917,243.013,229.715,242.273
0.052,4.263,1.950,1.950,243.104,229.649,242.278
0.054,4.373,1.973,1.973,243.183,229.573,242.284
0.055,4.479,1.987,1.987,243.250,229.491,242.290
0.057,4.579,1.994,1.994,243.308,229.409,242.296
0.058,4.673,1.994,1.994,243.355,229.329,242.302
0.060,4.755,1.989,1.989,243.394,229.256,242.307
0.061,4.824,1.980,1.980,243.425,229.195,242.311
0.063,4.876,1.968,1.968,243.450,229.149,242.314
0.064,4.913,1.954,1.954,243.468,229.117,242.317
0.065,4.937,1.938,1.938,243.482,229.097,242.318
0.067,4.953,1.922,1.922,243.491,229.084,242.319
0.068,4.964,1.905,1.905,243.496,229.074,242.320
0.070,4.974,1.889,1.889,243.498,229.064,242.321
0.071,4.988,1.874,1.874,243.499,229.051,242.322
0.073,5.010,1.861,1.861,243.498,229.029,242.324
0.074,5.043,1.849,1.849,243.497,228.996,242.326
0.076,5.091,1.838,1.838,243.496,228.948,242.330
0.077,5.159,1.828,1.828,243.496,228.880,242.334
0.079,5.246,1.819,1.819,243.498,228.793,242.340
0.080,5.349,1.810,1.810,243.501,228.690,242.346
0.082,5.465,1.802,1.802,243.505,228.575,242.354
0.083,5.588,1.794,1.794,243.510,228.452,242.362
0.085,5.716,1.787,1.787,243.516,228.325,242.371
0.086,5.842,1.781,1.781,243.522,228.199,242.380
0.088,5.964,1.777,1.777,243.528,228.077,242.389
0.089,6.078,1.774,1.774,243.533,227.964,242.398
0.091,6.178,1.774,1.774,243.539,227.864,242.407
0.092,6.262,1.777,1.777,243.543,227.782,242.415
0.094,6.325,1.781,1.781,243.547,227.719,242.422
0.095,6.369,1.787,1.787,243.549,227.675,242.429
0.097,6.398,1.793,1.793,243.552,227.647,242.435
0.098,6.413,1.799,1.799,243.554,227.633,242.440
0.100,6.420,1.803,1.803,243.556,227.629,242.445
0.101,6.427,1.806,1.806,243.559,227.633,242.450
0.103,6.438,1.806,1.806,243.562,227.643,242.453
0.104,6.451,1.804,1.804,243.566,227.656,242.457
0.106,6.465,1.800,1.800,243.572,227.668,242.459
0.107,6.477,1.794,1.794,243.579,227.678,242.462
0.109,6.487,1.787,1.787,243.587,227.682,242.464
0.110,6.498,1.778,1.778,243.598,227.681,242.465
0.112,6.511,1.769,1.769,243.609,227.674,242.466
0.113,6.527,1.759,1.759,243.621,227.663,242.467
0.115,6.546,1.750,1.750,243.633,227.648,242.467
0.116,6.567,1.743,1.743,243.643,227.630,242.468
0.118,6.590,1.738,1.738,243.653,227.610,242.468
0.119,6.614,1.736,1.736,243.661,227.587,242.467
0.121,6.638,1.738,1.738,243.666,227.564,242.467
0.122,6.662,1.745,1.745,243.668,227.540,242.466
0.124,6.686,1.757,1.757,243.666,227.516,242.465
0.125,6.710,1.772,1.772,243.661,227.493,242.464
0.126,6.736,1.788,1.788,243.651,227.468,242.463
0.128,6.765,1.803,1.803,243.638,227.442,242.461
0.129,6.800,1.815,1.815,243.620,227.413,242.458
0.131,6.840,1.823,1.823,243.599,227.379,242.454
0.132,6.887,1.825,1.825,243.574,227.339,242.449
0.134,6.943,1.821,1.821,243.545,227.292,242.442
0.135,7.007,1.810,1.810,243.513,227.237,242.433
0.137,7.081,1.792,1.792,243.477,227.173,242.423
0.138,7.166,1.767,1.767,243.438,227.099,242.410
0.140,7.264,1.736,1.736,243.395,227.013,242.394
0.141,7.371,1.697,1.697,243.349,226.917,242.377
0.143,7.487,1.652,1.652,243.302,226.813,242.356
0.144,7.609,1.602,1.602,243.254,226.703,242.333
0.146,7.735,1.549,1.549,243.206,226.589,242.308
0.147,7.864,1.493,1.493,243.159,226.473,242.279
0.149,7.992,1.438,1.438,243.114,226.357,242.248
0.150,8.118,1.385,1.385,243.072,226.243,242.214
0.152,8.240,1.335,1.335,243.033,226.133,242.178
0.153,8.357,1.290,1.290,242.999,226.029,242.138
0.155,8.466,1.251,1.251,242.971,225.932,242.096
0.156,8.569,1.215,1.215,242.947,225.843,242.051
0.158,8.665,1.184,1.184,242.929,225.761,242.005
0.159,8.757,1.158,1.158,242.914,225.683,241.959
0.161,8.845,1.135,1.135,242.901,225.608,241.914
0.162,8.931,1.117,1.117,242.891,225.535,241.870
0.164,9.014,1.101,1.101,242.883,225.462,241.830
0.165,9.097,1.089,1.089,242.875,225.388,241.794
0.167,9.180,1.080,1.080,242.866,225.311,241.763
0.168,9.265,1.073,1.073,242.856,225.231,241.738
0.170,9.354,1.067,1.067,242.845,225.144,241.720
0.171,9.449,1.063,1.063,242.831,225.052,241.709
0.173,9.547,1.059,1.059,242.816,224.954,241.703
0.174,9.649,1.057,1.057,242.800,224.854,241.700
0.176,9.752,1.056,1.056,242.785,224.752,241.698
0.177,9.855,1.057,1.057,242.772,224.650,241.693
0.179,9.956,1.060,1.060,242.761,224.550,241.684
0.180,10.055,1.066,1.066,242.754,224.452,241.669
0.182,10.151,1.076,1.076,242.751,224.360,241.644
0.183,10.244,1.089,1.089,242.753,224.273,241.609
0.185,10.337,1.105,1.105,242.762,224.195,241.559
0.186,10.434,1.124,1.124,242.777,224.126,241.494
0.188,10.535,1.145,1.145,242.799,224.065,241.416
0.189,10.641,1.168,1.168,242.826,224.012,241.328
0.190,10.753,1.191,1.191,242.858,223.967,241.231
0.192,10.867,1.213,1.213,242.892,223.928,241.130
0.193,10.981,1.236,1.236,242.928,223.895,241.026
0.195,11.094,1.257,1.257,242.965,223.867,240.923
0.196,11.203,1.277,1.277,243.002,223.842,240.823
0.198,11.305,1.297,1.297,243.037,223.821,240.730
0.199,11.397,1.315,1.315,243.070,223.803,240.646
0.201,11.477,1.333,1.333,243.099,223.787,240.573
0.202,11.545,1.349,1.349,243.124,223.771,240.513
0.204,11.602,1.363,1.363,243.144,223.755,240.461
0.205,11.652,1.374,1.374,243.158,223.738,240.416
0.207,11.697,1.380,1.380,243.166,223.720,240.377
0.208,11.740,1.381,1.381,243.166,223.698,240.339
0.210,11.786,1.373,1.373,243.158,223.673,240.301
0.211,11.839,1.356,1.356,243.142,223.643,240.261
0.213,11.901,1.328,1.328,243.116,223.607,240.217
0.214,11.977,1.291,1.291,243.080,223.564,240.165
0.216,12.069,1.249,1.249,243.034,223.514,240.104
0.217,12.177,1.207,1.207,242.977,223.456,240.033
0.219,12.300,1.168,1.168,242.909,223.392,239.953
0.220,12.435,1.138,1.138,242.831,223.322,239.868
0.222,12.580,1.122,1.122,242.744,223.248,239.778
0.223,12.733,1.122,1.122,242.649,223.171,239.687
0.225,12.891,1.139,1.139,242.545,223.093,239.595
0.226,13.053,1.169,1.169,242.435,223.014,239.507
0.228,13.217,1.208,1.208,242.318,222.937,239.423
0.229,13.381,1.252,1.252,242.194,222.862,239.345
0.231,13.543,1.297,1.297,242.066,222.791,239.277
0.232,13.702,1.340,1.340,241.932,222.725,239.220
0.234,13.859,1.376,1.376,241.796,222.664,239.173
0.235,14.012,1.408,1.408,241.660,222.607,239.135
0.237,14.160,1.435,1.435,241.524,222.554,239.105
0.238,14.302,1.460,1.460,241.392,222.505,239.083
0.240,14.438,1.485,1.485,241.266,222.459,239.066
0.241,14.564,1.511,1.511,241.148,222.417,239.054
0.243,14.680,1.539,1.539,241.039,222.377,239.046
0.244,14.784,1.572,1.572,240.942,222.340,239.040
0.246,14.875,1.606,1.606,240.858,222.305,239.036
0.247,14.950,1.641,1.641,240.791,222.272,239.032
0.249,15.010,1.672,1.672,240.739,222.241,239.028
0.250,15.059,1.699,1.699,240.701,222.211,239.024
0.251,15.097,1.718,1.718,240.675,222.183,239.020
0.253,15.129,1.729,1.729,240.659,222.156,239.014
0.254,15.156,1.729,1.729,240.651,222.131,239.009
0.256,15.181,1.722,1.722,240.649,222.107,239.002
0.257,15.205,1.709,1.709,240.651,222.085,238.995
0.259,15.228,1.694,1.694,240.655,222.064,238.987
0.260,15.250,1.678,1.678,240.660,222.044,238.978
0.262,15.272,1.664,1.664,240.662,222.025,238.967
0.263,15.293,1.654,1.654,240.662,222.008,238.955
0.265,15.313,1.650,1.650,240.659,221.992,238.943
0.266,15.334,1.648,1.648,240.653,221.977,238.930
0.268,15.354,1.648,1.648,240.644,221.965,238.916
0.269,15.375,1.648,1.648,240.633,221.954,238.902
0.271,15.397,1.647,1.647,240.619,221.946,238.888
0.272,15.419,1.642,1.642,240.603,221.940,238.875
0.274,15.442,1.633,1.633,240.584,221.936,238.862
0.275,15.466,1.621,1.621,240.563,221.935,238.850
0.277,15.492,1.606,1.606,240.539,221.937,238.839
0.278,15.519,1.591,1.591,240.514,221.942,238.830
0.280,15.546,1.577,1.577,240.489,221.948,238.821
0.281,15.572,1.566,1.566,240.465,221.951,238.811
0.283,15.595,1.561,1.561,240.445,221.950,238.799
0.284,15.617,1.561,1.561,240.431,221.941,238.785
0.286,15.645,1.564,1.564,240.424,221.923,238.766
0.287,15.684,1.569,1.569,240.427,221.891,238.743
0.289,15.742,1.570,1.570,240.441,221.844,238.713
0.290,15.822,1.567,1.567,240.468,221.778,238.676
0.292,15.928,1.554,1.554,240.511,221.692,238.630
0.293,16.065,1.530,1.530,240.571,221.582,238.575
0.295,16.230,1.493,1.493,240.647,221.451,238.511
0.296,16.418,1.447,1.447,240.736,221.301,238.439
0.298,16.624,1.399,1.399,240.836,221.139,238.362
0.299,16.841,1.353,1.353,240.941,220.967,238.280
0.301,17.065,1.315,1.315,241.051,220.792,238.195
0.302,17.289,1.291,1.291,241.161,220.617,238.109
0.304,17.507,1.285,1.285,241.268,220.447,238.023
0.305,17.715,1.299,1.299,241.369,220.286,237.939
0.307,17.906,1.329,1.329,241.460,220.139,237.859
0.308,18.074,1.369,1.369,241.540,220.011,237.784
0.310,18.218,1.415,1.415,241.605,219.903,237.714
0.311,18.338,1.461,1.461,241.658,219.815,237.652
0.313,18.439,1.503,1.503,241.700,219.743,237.595
0.314,18.522,1.537,1.537,241.733,219.685,237.545
0.315,18.591,1.560,1.560,241.759,219.639,237.502
0.317,18.647,1.576,1.576,241.780,219.603,237.464
0.318,18.692,1.586,1.586,241.797,219.574,237.434
0.320,18.730,1.592,1.592,241.813,219.550,237.410
0.321,18.763,1.597,1.597,241.830,219.528,237.392
0.323,18.794,1.603,1.603,241.848,219.506,237.381
0.324,18.827,1.611,1.611,241.870,219.482,237.376
0.326,18.864,1.622,1.622,241.897,219.455,237.375
0.327,18.907,1.635,1.635,241.929,219.427,237.375
0.329,18.955,1.648,1.648,241.967,219.397,237.373
0.330,19.009,1.661,1.661,242.010,219.366,237.365
0.332,19.070,1.673,1.673,242.061,219.335,237.350
0.333,19.142,1.683,1.683,242.118,219.303,237.323
0.335,19.225,1.690,1.690,242.183,219.271,237.282
0.336,19.324,1.697,1.697,242.257,219.239,237.223
0.338,19.442,1.706,1.706,242.339,219.208,237.145
0.339,19.581,1.721,1.721,242.430,219.179,237.043
0.341,19.743,1.743,1.743,242.529,219.150,236.919
0.342,19.921,1.777,1.777,242.634,219.121,236.778
0.344,20.112,1.823,1.823,242.742,219.092,236.623
0.345,20.310,1.884,1.884,242.852,219.060,236.461
0.347,20.512,1.953,1.953,242.962,219.026,236.296
0.348,20.711,2.025,2.025,243.068,218.988,236.131
0.350,20.904,2.095,2.095,243.169,218.945,235.973
0.351,21.085,2.156,2.156,243.263,218.897,235.825
0.353,21.251,2.203,2.203,243.346,218.842,235.692
0.354,21.399,2.231,2.231,243.418,218.780,235.580
0.356,21.527,2.238,2.238,243.477,218.711,235.490
0.357,21.639,2.231,2.231,243.524,218.635,235.422
0.359,21.739,2.216,2.216,243.561,218.555,235.374
0.360,21.833,2.198,2.198,243.589,218.471,235.344
0.362,21.922,2.184,2.184,243.610,218.385,235.332
0.363,22.009,2.180,2.180,243.626,218.299,235.335
0.365,22.096,2.191,2.191,243.637,218.215,235.352
0.366,22.184,2.218,2.218,243.647,218.132,235.381
0.368,22.272,2.257,2.257,243.656,218.055,235.421
0.369,22.360,2.303,2.303,243.665,217.982,235.471
0.371,22.448,2.353,2.353,243.677,217.917,235.527
0.372,22.535,2.403,2.403,243.690,217.856,235.589
0.374,22.622,2.449,2.449,243.702,217.798,235.652
0.375,22.707,2.487,2.487,243.712,217.740,235.714
0.376,22.790,2.516,2.516,243.718,217.679,235.771
0.378,22.872,2.537,2.537,243.718,217.614,235.819
0.379,22.955,2.550,2.550,243.711,217.541,235.857
0.381,23.043,2.557,2.557,243.695,217.457,235.881
0.382,23.143,2.556,2.556,243.667,217.361,235.888
0.384,23.262,2.549,2.549,243.627,217.250,235.874
0.385,23.407,2.536,2.536,243.573,217.121,235.836
0.387,23.578,2.519,2.519,243.505,216.976,235.776
0.388,23.771,2.499,2.499,243.428,216.818,235.697
0.390,23.979,2.478,2.478,243.343,216.652,235.604
0.391,24.197,2.459,2.459,243.255,216.482,235.500
0.393,24.418,2.442,2.442,243.166,216.312,235.390
0.394,24.635,2.429,2.429,243.080,216.147,235.278
0.396,24.843,2.422,2.422,243.000,215.990,235.168
0.397,25.034,2.419,2.419,242.930,215.846,235.064
0.399,25.202,2.419,2.419,242.872,215.718,234.971
0.400,25.341,2.421,2.421,242.829,215.612,234.892
0.402,25.448,2.425,2.425,242.803,215.529,234.830
0.403,25.529,2.429,2.429,242.786,215.464,234.784
0.405,25.590,2.433,2.433,242.772,215.414,234.753
0.406,25.640,2.435,2.435,242.752,215.372,234.733
0.408,25.690,2.437,2.437,242.720,215.335,234.725
0.409,25.754,2.438,2.438,242.668,215.298,234.725
0.411,25.845,2.439,2.439,242.588,215.255,234.732
0.412,25.971,2.440,2.440,242.474,215.202,234.746
0.414,26.142,2.441,2.441,242.318,215.135,234.763
0.415,26.366,2.443,2.443,242.113,215.048,234.782
0.417,26.649,2.446,2.446,241.853,214.937,234.802
0.418,26.984,2.453,2.453,241.545,214.806,234.822
0.420,27.358,2.463,2.463,241.204,214.657,234.844
0.421,27.757,2.480,2.480,240.839,214.496,234.869
0.423,28.168,2.503,2.503,240.465,214.327,234.897
0.424,28.579,2.534,2.534,240.094,214.154,234.929
0.426,28.977,2.575,2.575,239.737,213.982,234.965
0.427,29.348,2.623,2.623,239.408,213.816,235.007
0.429,29.681,2.676,2.676,239.118,213.659,235.055
0.430,29.964,2.732,2.732,238.880,213.515,235.110
0.432,30.187,2.787,2.787,238.707,213.391,235.173
0.433,30.353,2.841,2.841,238.598,213.285,235.242
0.435,30.479,2.889,2.889,238.544,213.197,235.313
0.436,30.581,2.931,2.931,238.534,213.123,235.383
0.438,30.673,2.966,2.966,238.559,213.063,235.448
0.439,30.763,2.996,2.996,238.608,213.014,235.504
0.440,30.850,3.021,3.021,238.671,212.973,235.549
0.442,30.930,3.043,3.043,238.737,212.938,235.577
0.443,30.998,3.061,3.061,238.798,212.909,235.585
0.445,31.051,3.078,3.078,238.841,212.881,235.570
0.446,31.105,3.092,3.092,238.858,212.853,235.527
0.448,31.184,3.104,3.104,238.841,212.824,235.456
0.449,31.297,3.112,3.112,238.794,212.791,235.358
0.451,31.442,3.118,3.118,238.722,212.754,235.238
0.452,31.616,3.119,3.119,238.628,212.711,235.098
0.454,31.815,3.115,3.115,238.517,212.660,234.941
0.455,32.033,3.106,3.106,238.393,212.601,234.771
0.457,32.266,3.095,3.095,238.261,212.532,234.592
0.458,32.510,3.083,3.083,238.124,212.451,234.407
0.460,32.761,3.077,3.077,237.987,212.358,234.218
0.461,33.015,3.078,3.078,237.855,212.251,234.030
0.463,33.269,3.092,3.092,237.732,212.129,233.845
0.464,33.521,3.122,3.122,237.618,211.992,233.666
0.466,33.771,3.172,3.172,237.513,211.844,233.494
0.467,34.016,3.239,3.239,237.419,211.686,233.332
0.469,34.255,3.319,3.319,237.335,211.519,233.182
0.470,34.488,3.408,3.408,237.262,211.347,233.045
0.472,34.711,3.501,3.501,237.200,211.170,232.923
0.473,34.925,3.593,3.593,237.149,210.991,232.818
0.475,35.128,3.681,3.681,237.109,210.812,232.732
0.476,35.319,3.760,3.760,237.080,210.634,232.668
0.478,35.499,3.830,3.830,237.064,210.460,232.626
0.479,35.670,3.892,3.892,237.058,210.290,232.605
0.481,35.836,3.947,3.947,237.062,210.125,232.601
0.482,35.999,3.994,3.994,237.075,209.962,232.610
0.484,36.160,4.036,4.036,237.095,209.803,232.627
0.485,36.319,4.072,4.072,237.120,209.647,232.647
0.487,36.477,4.104,4.104,237.149,209.493,232.667
0.488,36.633,4.133,4.133,237.181,209.341,232.681
0.490,36.787,4.160,4.160,237.214,209.191,232.685
0.491,36.940,4.186,4.186,237.247,209.042,232.674
0.493,37.095,4.214,4.214,237.278,208.893,232.645
0.494,37.253,4.245,4.245,237.307,208.746,232.594
0.496,37.414,4.280,4.280,237.334,208.603,232.525
0.497,37.575,4.319,4.319,237.361,208.467,232.444
0.499,37.733,4.359,4.359,237.388,208.341,232.352
0.500,37.884,4.396,4.396,237.417,208.228,232.256
0.501,38.024,4.428,4.428,237.448,208.132,232.159
0.503,38.149,4.451,4.451,237.483,208.056,232.066
0.504,38.258,4.462,4.462,237.522,208.002,231.980
0.506,38.349,4.457,4.457,237.567,207.974,231.906
0.507,38.426,4.440,4.440,237.618,207.975,231.849
0.509,38.502,4.413,4.413,237.677,208.006,231.811
0.510,38.586,4.383,4.382,237.739,208.059,231.791
0.512,38.675,4.353,4.353,237.801,208.122,231.785
0.513,38.758,4.329,4.329,237.859,208.182,231.790
0.515,38.824,4.315,4.315,237.907,208.226,231.801
0.516,38.865,4.316,4.316,237.941,208.242,231.815
0.518,38.897,4.330,4.330,237.958,208.218,231.827
0.519,38.975,4.352,4.352,237.952,208.140,231.835
0.521,39.122,4.378,4.378,237.919,207.996,231.833
0.522,39.354,4.404,4.404,237.855,207.775,231.819
0.524,39.682,4.426,4.426,237.756,207.463,231.789
0.525,40.106,4.440,4.440,237.622,207.064,231.741
0.527,40.605,4.443,4.443,237.461,206.595,231.680
0.528,41.159,4.435,4.435,237.280,206.076,231.609
0.530,41.748,4.421,4.421,237.086,205.526,231.529
0.531,42.352,4.402,4.402,236.887,204.962,231.446
0.533,42.950,4.382,4.382,236.690,204.404,231.361
0.534,43.521,4.363,4.363,236.501,203.871,231.279
0.536,44.047,4.348,4.348,236.329,203.380,231.201
0.537,44.506,4.339,4.339,236.179,202.952,231.132
0.539,44.878,4.336,4.336,236.061,202.604,231.075
0.540,45.150,4.341,4.342,235.977,202.349,231.030
0.542,45.333,4.354,4.355,235.924,202.176,230.999
0.543,45.439,4.376,4.377,235.898,202.077,230.977
0.545,45.480,4.408,4.408,235.893,202.038,230.964
0.546,45.497,4.450,4.450,235.905,202.050,230.959
0.548,45.554,4.501,4.500,235.930,202.101,230.959
0.549,45.639,4.556,4.555,235.962,202.179,230.962
0.551,45.740,4.613,4.612,235.997,202.274,230.967
0.552,45.847,4.667,4.666,236.030,202.375,230.972
0.554,45.946,4.715,4.713,236.056,202.470,230.976
0.555,46.026,4.751,4.751,236.072,202.550,230.977
0.557,46.087,4.773,4.774,236.077,202.610,230.976
0.558,46.127,4.781,4.784,236.076,202.650,230.975
0.560,46.148,4.778,4.783,236.069,202.670,230.976
0.561,46.158,4.766,4.772,236.061,202.669,230.982
0.563,46.184,4.748,4.754,236.054,202.647,230.993
0.564,46.233,4.727,4.731,236.050,202.602,231.013
0.565,46.307,4.705,4.706,236.053,202.535,231.043
0.567,46.407,4.686,4.680,236.065,202.445,231.085
0.568,46.536,4.667,4.655,236.088,202.331,231.141
0.570,46.697,4.649,4.631,236.126,202.193,231.214
0.571,46.887,4.630,4.609,236.179,202.033,231.302
0.573,47.101,4.609,4.589,236.243,201.855,231.404
0.574,47.333,4.585,4.571,236.315,201.665,231.514
0.576,47.576,4.556,4.558,236.393,201.467,231.632
0.577,47.824,4.522,4.548,236.474,201.266,231.753
0.579,48.071,4.485,4.541,236.554,201.067,231.874
0.580,48.309,4.448,4.537,236.631,200.874,231.992
0.582,48.534,4.411,4.534,236.702,200.693,232.104
0.583,48.738,4.377,4.533,236.763,200.529,232.208
0.585,48.915,4.349,4.532,236.812,200.385,232.299
0.586,49.061,4.329,4.530,236.848,200.265,232.376
0.588,49.180,4.317,4.528,236.870,200.167,232.439
0.589,49.275,4.312,4.524,236.882,200.088,232.491
0.591,49.350,4.312,4.520,236.886,200.025,232.531
0.592,49.409,4.316,4.515,236.883,199.975,232.562
0.594,49.456,4.320,4.510,236.875,199.934,232.584
0.595,49.494,4.325,4.504,236.865,199.901,232.599
0.597,49.527,4.327,4.497,236.855,199.871,232.608
0.598,49.558,4.327,4.489,236.846,199.842,232.612
0.600,49.589,4.324,4.482,236.841,199.811,232.613
0.601,49.625,4.319,4.473,236.841,199.775,232.611
0.603,49.667,4.311,4.464,236.846,199.734,232.607
0.604,49.712,4.302,4.453,236.856,199.689,232.603
0.606,49.761,4.292,4.442,236.869,199.643,232.597
0.607,49.812,4.280,4.430,236.885,199.595,232.590
