"T","Distance","Radius","FreeRadius","X","Y","Z"
0.000,0.000,0.846,0.846,239.675,227.853,241.827
0.001,0.181,0.882,0.882,239.821,227.937,241.895
0.003,0.360,0.917,0.917,239.965,228.020,241.962
0.004,0.534,0.952,0.952,240.104,228.102,242.026
0.005,0.702,0.985,0.985,240.238,228.181,242.088
0.006,0.859,1.016,1.016,240.363,228.258,242.146
0.008,1.006,1.044,1.044,240.478,228.332,242.199
0.009,1.138,1.068,1.068,240.580,228.401,242.247
0.010,1.254,1.089,1.089,240.668,228.465,242.287
0.011,1.352,1.106,1.106,240.739,228.523,242.320
0.013,1.430,1.120,1.120,240.792,228.576,242.345
0.014,1.490,1.130,1.130,240.826,228.622,242.361
0.015,1.539,1.138,1.138,240.848,228.665,242.369
0.016,1.582,1.145,1.145,240.862,228.705,242.370
0.018,1.625,1.151,1.151,240.873,228.746,242.367
0.019,1.671,1.157,1.157,240.887,228.790,242.359
0.020,1.724,1.164,1.164,240.908,228.838,242.348
0.021,1.790,1.172,1.172,240.942,228.892,242.335
0.023,1.873,1.183,1.183,240.993,228.956,242.321
0.024,1.979,1.199,1.199,241.068,229.030,242.307
0.025,2.113,1.219,1.219,241.170,229.117,242.295
0.027,2.274,1.246,1.246,241.298,229.214,242.285
0.028,2.456,1.280,1.280,241.447,229.317,242.276
0.029,2.652,1.323,1.323,241.613,229.421,242.269
0.030,2.855,1.377,1.377,241.790,229.521,242.264
0.032,3.060,1.441,1.441,241.973,229.614,242.260
0.033,3.261,1.513,1.513,242.157,229.693,242.258
0.034,3.452,1.590,1.590,242.338,229.756,242.257
0.035,3.629,1.667,1.667,242.510,229.797,242.258
0.037,3.788,1.742,1.742,242.668,229.811,242.260
0.038,3.930,1.811,1.811,242.809,229.796,242.264
0.039,4.060,1.871,1.871,242.933,229.756,242.268
0.040,4.184,1.918,1.918,243.041,229.696,242.273
0.042,4.303,1.949,1.949,243.134,229.622,242.279
0.043,4.419,1.967,1.967,243.214,229.537,242.285
0.044,4.530,1.973,1.974,243.281,229.449,242.292
0.046,4.634,1.971,1.971,243.336,229.361,242.298
0.047,4.728,1.963,1.963,243.381,229.280,242.304
0.048,4.806,1.950,1.950,243.418,229.210,242.309
0.049,4.867,1.936,1.936,243.446,229.157,242.314
0.051,4.909,1.922,1.922,243.466,229.121,242.318
0.052,4.936,1.911,1.911,243.481,229.098,242.321
0.053,4.954,1.903,1.903,243.491,229.084,242.323
0.054,4.966,1.896,1.896,243.497,229.073,242.325
0.056,4.977,1.890,1.889,243.499,229.062,242.327
0.057,4.993,1.883,1.883,243.499,229.046,242.328
0.058,5.019,1.876,1.875,243.498,229.020,242.329
0.059,5.060,1.866,1.866,243.497,228.980,242.331
0.061,5.119,1.855,1.855,243.496,228.920,242.332
0.062,5.201,1.840,1.840,243.497,228.838,242.334
0.063,5.305,1.824,1.824,243.499,228.735,242.336
0.064,5.424,1.806,1.807,243.502,228.616,242.340
0.066,5.553,1.790,1.791,243.507,228.486,242.345
0.067,5.689,1.776,1.777,243.512,228.351,242.351
0.068,5.825,1.766,1.766,243.518,228.216,242.359
0.070,5.956,1.760,1.760,243.525,228.085,242.369
0.071,6.079,1.761,1.761,243.531,227.963,242.382
0.072,6.186,1.768,1.767,243.538,227.857,242.398
0.073,6.275,1.781,1.779,243.544,227.770,242.417
0.075,6.343,1.796,1.794,243.550,227.706,242.440
0.076,6.392,1.812,1.810,243.555,227.663,242.463
0.077,6.427,1.827,1.824,243.559,227.638,242.485
0.078,6.449,1.838,1.836,243.564,227.627,242.505
0.080,6.464,1.843,1.842,243.567,227.627,242.519
0.081,6.475,1.840,1.840,243.571,227.635,242.526
0.082,6.489,1.828,1.830,243.574,227.648,242.524
0.083,6.509,1.807,1.812,243.577,227.662,242.510
0.085,6.539,1.781,1.789,243.580,227.675,242.483
0.086,6.583,1.752,1.761,243.583,227.683,242.440
0.087,6.638,1.721,1.731,243.586,227.686,242.385
0.088,6.696,1.691,1.700,243.590,227.686,242.327
0.090,6.749,1.664,1.669,243.596,227.684,242.275
0.091,6.787,1.642,1.641,243.606,227.684,242.238
0.092,6.805,1.626,1.617,243.618,227.686,242.225
0.094,6.834,1.617,1.598,243.636,227.694,242.246
0.095,6.903,1.612,1.584,243.659,227.710,242.309
0.096,7.024,1.611,1.577,243.688,227.736,242.424
0.097,7.208,1.613,1.577,243.725,227.773,242.600
0.099,7.461,1.616,1.585,243.769,227.824,242.844
0.100,7.776,1.620,1.601,243.820,227.887,243.148
0.101,8.137,1.624,1.626,243.875,227.959,243.499
0.102,8.532,1.626,1.661,243.931,228.038,243.881
0.104,8.945,1.628,1.703,243.986,228.120,244.282
0.105,9.361,1.630,1.748,244.039,228.202,244.687
0.106,9.768,1.633,1.795,244.085,228.282,245.082
0.107,10.149,1.637,1.839,244.124,228.357,245.454
0.109,10.491,1.642,1.878,244.153,228.424,245.789
0.110,10.780,1.651,1.909,244.169,228.480,246.072
0.111,11.008,1.662,1.929,244.171,228.523,246.296
0.113,11.183,1.677,1.936,244.160,228.553,246.467
0.114,11.314,1.695,1.933,244.139,228.571,246.595
0.115,11.412,1.718,1.924,244.109,228.579,246.689
0.116,11.490,1.744,1.912,244.072,228.575,246.757
0.118,11.558,1.774,1.901,244.029,228.562,246.808
0.119,11.626,1.809,1.894,243.982,228.539,246.852
0.120,11.699,1.847,1.895,243.934,228.508,246.896
0.121,11.782,1.890,1.908,243.885,228.469,246.951
0.123,11.880,1.937,1.934,243.837,228.423,247.024
0.124,11.997,1.987,1.972,243.792,228.372,247.118
0.125,12.128,2.040,2.019,243.750,228.319,247.231
0.126,12.271,2.094,2.073,243.711,228.268,247.358
0.128,12.422,2.150,2.132,243.677,228.222,247.498
0.129,12.577,2.205,2.193,243.646,228.185,247.646
0.130,12.735,2.260,2.255,243.620,228.160,247.800
0.131,12.893,2.313,2.314,243.599,228.151,247.956
0.133,13.050,2.364,2.369,243.583,228.161,248.111
0.134,13.205,2.413,2.420,243.573,228.194,248.263
0.135,13.361,2.460,2.467,243.570,228.251,248.408
0.137,13.519,2.504,2.510,243.572,228.330,248.545
0.138,13.680,2.545,2.550,243.580,228.425,248.675
0.139,13.841,2.583,2.586,243.593,228.530,248.796
0.140,13.999,2.618,2.620,243.610,228.640,248.908
0.142,14.151,2.651,2.650,243.631,228.750,249.011
0.143,14.292,2.680,2.678,243.656,228.853,249.104
0.144,14.419,2.704,2.703,243.684,228.945,249.188
0.145,14.528,2.725,2.723,243.714,229.019,249.261
0.147,14.616,2.739,2.738,243.747,229.071,249.324
0.148,14.684,2.748,2.747,243.781,229.098,249.376
0.149,14.739,2.750,2.749,243.816,229.102,249.419
0.150,14.791,2.744,2.744,243.852,229.088,249.453
0.152,14.844,2.730,2.730,243.888,229.059,249.479
0.153,14.901,2.707,2.707,243.924,229.020,249.499
0.154,14.960,2.678,2.679,243.958,228.973,249.513
0.155,15.021,2.645,2.645,243.992,228.923,249.523
0.157,15.080,2.610,2.610,244.023,228.874,249.528
0.158,15.133,2.575,2.575,244.052,228.829,249.532
0.159,15.179,2.543,2.543,244.078,228.792,249.533
0.161,15.214,2.515,2.515,244.101,228.764,249.535
0.162,15.241,2.495,2.495,244.120,228.745,249.538
0.163,15.261,2.483,2.483,244.134,228.734,249.546
0.164,15.278,2.478,2.478,244.143,228.731,249.559
0.166,15.300,2.481,2.480,244.147,228.734,249.581
0.167,15.333,2.489,2.489,244.146,228.744,249.612
0.168,15.380,2.501,2.501,244.138,228.759,249.656
0.169,15.443,2.518,2.518,244.123,228.779,249.714
0.171,15.524,2.537,2.537,244.100,228.804,249.788
0.172,15.624,2.558,2.558,244.071,228.832,249.879
0.173,15.741,2.580,2.580,244.035,228.864,249.986
0.174,15.869,2.602,2.602,243.998,228.897,250.104
0.176,16.006,2.622,2.622,243.959,228.931,250.231
0.177,16.147,2.640,2.639,243.924,228.965,250.362
0.178,16.288,2.654,2.653,243.893,228.998,250.496
0.180,16.426,2.663,2.663,243.870,229.028,250.628
0.181,16.557,2.666,2.666,243.858,229.056,250.756
0.182,16.678,2.663,2.663,243.858,229.079,250.875
0.183,16.789,2.652,2.652,243.873,229.097,250.983
0.185,16.890,2.633,2.633,243.906,229.110,251.078
0.186,16.987,2.606,2.606,243.956,229.117,251.161
0.187,17.086,2.571,2.571,244.023,229.118,251.234
0.188,17.191,2.528,2.529,244.107,229.114,251.296
0.190,17.306,2.477,2.478,244.208,229.106,251.351
0.191,17.434,2.419,2.419,244.326,229.092,251.399
0.192,17.577,2.352,2.352,244.461,229.073,251.442
0.193,17.734,2.278,2.277,244.612,229.051,251.480
0.195,17.908,2.200,2.199,244.780,229.023,251.516
0.196,18.098,2.120,2.118,244.964,228.992,251.550
0.197,18.301,2.042,2.040,245.162,228.957,251.583
0.198,18.512,1.969,1.966,245.367,228.920,251.614
0.200,18.727,1.903,1.901,245.576,228.882,251.643
0.201,18.939,1.848,1.846,245.784,228.844,251.670
0.202,19.145,1.806,1.806,245.984,228.808,251.695
0.204,19.338,1.779,1.782,246.174,228.774,251.717
0.205,19.515,1.764,1.770,246.346,228.744,251.736
0.206,19.669,1.759,1.768,246.498,228.718,251.752
0.207,19.796,1.760,1.773,246.623,228.699,251.765
0.209,19.893,1.766,1.781,246.718,228.686,251.774
0.210,19.963,1.772,1.790,246.787,228.678,251.780
0.211,20.012,1.776,1.796,246.836,228.672,251.784
0.212,20.045,1.776,1.796,246.868,228.665,251.788
0.214,20.069,1.769,1.788,246.890,228.656,251.793
0.215,20.092,1.755,1.772,246.906,228.641,251.799
0.216,20.122,1.736,1.750,246.922,228.618,251.808
0.217,20.163,1.712,1.723,246.943,228.585,251.820
0.219,20.221,1.683,1.691,246.973,228.538,251.838
0.220,20.301,1.651,1.656,247.018,228.476,251.861
0.221,20.405,1.616,1.618,247.080,228.398,251.891
0.223,20.530,1.579,1.578,247.157,228.307,251.928
0.224,20.674,1.540,1.538,247.247,228.203,251.972
0.225,20.833,1.500,1.498,247.346,228.090,252.025
0.226,21.005,1.463,1.460,247.453,227.970,252.085
0.228,21.187,1.427,1.425,247.565,227.845,252.154
0.229,21.375,1.396,1.394,247.680,227.718,252.233
0.230,21.568,1.369,1.368,247.795,227.590,252.320
0.231,21.763,1.349,1.349,247.908,227.465,252.418
0.233,21.958,1.337,1.337,248.017,227.344,252.525
0.234,22.152,1.333,1.334,248.121,227.228,252.641
0.235,22.342,1.336,1.337,248.219,227.118,252.762
0.236,22.528,1.344,1.344,248.312,227.016,252.886
0.238,22.708,1.354,1.355,248.401,226.921,253.010
0.239,22.879,1.367,1.367,248.484,226.834,253.131
0.240,23.039,1.378,1.379,248.563,226.756,253.247
0.241,23.187,1.388,1.388,248.638,226.688,253.355
0.243,23.319,1.393,1.393,248.707,226.631,253.452
0.244,23.435,1.394,1.394,248.772,226.584,253.535
0.245,23.533,1.391,1.391,248.833,226.549,253.603
0.247,23.616,1.384,1.384,248.892,226.526,253.657
0.248,23.689,1.376,1.376,248.950,226.515,253.701
0.249,23.758,1.367,1.366,249.009,226.515,253.735
0.250,23.827,1.357,1.357,249.071,226.526,253.763
0.252,23.902,1.349,1.349,249.139,226.549,253.786
0.253,23.987,1.343,1.343,249.214,226.584,253.808
0.254,24.085,1.340,1.340,249.297,226.630,253.830
0.255,24.198,1.340,1.340,249.392,226.687,253.855
0.257,24.329,1.342,1.342,249.498,226.755,253.886
0.258,24.476,1.347,1.347,249.618,226.834,253.922
0.259,24.636,1.354,1.354,249.747,226.919,253.962
0.260,24.805,1.363,1.363,249.884,227.008,254.004
0.262,24.978,1.375,1.375,250.026,227.097,254.047
0.263,25.151,1.389,1.389,250.170,227.184,254.089
0.264,25.321,1.405,1.405,250.314,227.266,254.128
0.265,25.484,1.422,1.422,250.455,227.338,254.162
0.267,25.635,1.442,1.442,250.591,227.399,254.189
0.268,25.773,1.463,1.463,250.720,227.445,254.208
0.269,25.894,1.487,1.487,250.838,227.474,254.218
0.271,26.003,1.512,1.512,250.946,227.486,254.219
0.272,26.104,1.539,1.539,251.046,227.484,254.214
0.273,26.198,1.568,1.568,251.139,227.472,254.207
0.274,26.289,1.599,1.599,251.228,227.453,254.200
0.276,26.377,1.631,1.631,251.313,227.430,254.195
0.277,26.464,1.663,1.663,251.396,227.405,254.196
0.278,26.551,1.695,1.695,251.480,227.382,254.206
0.279,26.640,1.726,1.726,251.564,227.364,254.227
0.281,26.735,1.755,1.755,251.652,227.354,254.261
0.282,26.839,1.782,1.782,251.743,227.352,254.312
0.283,26.954,1.806,1.806,251.839,227.358,254.375
0.284,27.078,1.828,1.828,251.940,227.367,254.447
0.286,27.210,1.847,1.847,252.044,227.375,254.527
0.287,27.347,1.866,1.866,252.152,227.381,254.611
0.288,27.487,1.886,1.886,252.263,227.380,254.695
0.290,27.629,1.907,1.907,252.379,227.369,254.777
0.291,27.773,1.932,1.932,252.498,227.346,254.854
0.292,27.919,1.961,1.961,252.621,227.306,254.923
0.293,28.069,1.995,1.995,252.747,227.246,254.980
0.295,28.225,2.035,2.035,252.874,227.168,255.025
0.296,28.386,2.078,2.078,253.001,227.075,255.059
0.297,28.549,2.122,2.122,253.123,226.970,255.084
0.298,28.710,2.163,2.163,253.238,226.859,255.101
0.300,28.864,2.200,2.200,253.343,226.746,255.112
0.301,29.009,2.230,2.230,253.434,226.634,255.119
0.302,29.138,2.251,2.251,253.509,226.529,255.121
0.303,29.249,2.259,2.259,253.565,226.433,255.123
0.305,29.336,2.255,2.255,253.598,226.352,255.124
0.306,29.400,2.242,2.242,253.607,226.289,255.125
0.307,29.448,2.223,2.223,253.596,226.243,255.128
0.308,29.486,2.202,2.202,253.572,226.212,255.131
0.310,29.520,2.182,2.182,253.544,226.194,255.134
0.311,29.547,2.168,2.168,253.518,226.187,255.136
0.312,29.563,2.162,2.162,253.502,226.189,255.136
0.314,29.571,2.169,2.169,253.503,226.197,255.134
0.315,29.600,2.188,2.188,253.529,226.209,255.129
0.316,29.659,2.218,2.218,253.586,226.223,255.121
0.317,29.758,2.253,2.253,253.683,226.236,255.109
0.319,29.898,2.291,2.291,253.822,226.248,255.092
0.320,30.073,2.327,2.327,253.995,226.258,255.072
0.321,30.273,2.358,2.358,254.194,226.267,255.047
0.322,30.490,2.380,2.380,254.409,226.274,255.019
0.324,30.715,2.388,2.388,254.631,226.280,254.989
0.325,30.939,2.383,2.383,254.852,226.285,254.955
0.326,31.152,2.368,2.368,255.063,226.289,254.920
0.327,31.346,2.345,2.345,255.253,226.293,254.883
0.329,31.513,2.318,2.318,255.416,226.296,254.844
0.330,31.644,2.291,2.291,255.541,226.299,254.804
0.331,31.740,2.268,2.268,255.628,226.300,254.764
0.332,31.809,2.252,2.252,255.684,226.299,254.725
0.334,31.859,2.246,2.246,255.716,226.293,254.687
0.335,31.898,2.252,2.252,255.730,226.281,254.652
0.336,31.936,2.267,2.267,255.734,226.262,254.620
0.338,31.976,2.289,2.289,255.735,226.232,254.594
0.339,32.022,2.314,2.314,255.738,226.191,254.573
0.340,32.079,2.339,2.339,255.752,226.137,254.558
0.341,32.155,2.362,2.362,255.782,226.069,254.551
0.343,32.254,2.380,2.380,255.835,225.984,254.553
0.344,32.378,2.390,2.390,255.910,225.886,254.562
0.345,32.523,2.391,2.391,256.006,225.779,254.577
0.346,32.686,2.383,2.383,256.122,225.665,254.596
0.348,32.863,2.368,2.368,256.254,225.549,254.618
0.349,33.051,2.347,2.347,256.401,225.435,254.642
0.350,33.247,2.321,2.321,256.562,225.325,254.665
0.351,33.448,2.291,2.291,256.734,225.224,254.686
0.353,33.651,2.258,2.258,256.915,225.136,254.704
0.354,33.854,2.223,2.223,257.105,225.064,254.717
0.355,34.056,2.187,2.187,257.300,225.009,254.725
0.357,34.259,2.152,2.152,257.498,224.970,254.730
0.358,34.460,2.118,2.118,257.697,224.944,254.732
0.359,34.658,2.088,2.088,257.895,224.928,254.733
0.360,34.853,2.061,2.061,258.090,224.920,254.736
0.362,35.041,2.039,2.039,258.278,224.917,254.741
0.363,35.222,2.024,2.024,258.458,224.917,254.751
0.364,35.392,2.016,2.016,258.628,224.917,254.766
0.365,35.550,2.015,2.015,258.784,224.914,254.790
0.367,35.695,2.020,2.020,258.926,224.906,254.823
0.368,35.829,2.029,2.029,259.051,224.893,254.865
0.369,35.953,2.041,2.041,259.162,224.875,254.917
0.370,36.070,2.053,2.053,259.259,224.853,254.979
0.372,36.182,2.064,2.064,259.343,224.828,255.049
0.373,36.292,2.073,2.073,259.415,224.802,255.128
0.374,36.402,2.077,2.077,259.476,224.774,255.215
0.375,36.513,2.076,2.076,259.527,224.747,255.310
0.377,36.627,2.070,2.070,259.568,224.720,255.413
0.378,36.745,2.060,2.060,259.601,224.695,255.524
0.379,36.867,2.046,2.046,259.626,224.673,255.641
0.381,36.992,2.030,2.030,259.644,224.653,255.763
0.382,37.117,2.012,2.012,259.654,224.634,255.886
0.383,37.241,1.992,1.992,259.657,224.616,256.009
0.384,37.361,1.971,1.971,259.653,224.597,256.128
0.386,37.476,1.949,1.949,259.642,224.578,256.240
0.387,37.582,1.929,1.929,259.624,224.556,256.343
0.388,37.679,1.910,1.910,259.599,224.532,256.433
0.389,37.766,1.893,1.893,259.567,224.505,256.509
0.391,37.843,1.880,1.880,259.529,224.473,256.568
0.392,37.912,1.871,1.871,259.485,224.438,256.609
0.393,37.978,1.866,1.866,259.438,224.403,256.637
0.394,38.038,1.868,1.868,259.391,224.370,256.658
0.396,38.093,1.875,1.875,259.348,224.343,256.677
0.397,38.140,1.885,1.885,259.311,224.324,256.699
0.398,38.182,1.895,1.895,259.284,224.317,256.730
0.399,38.229,1.904,1.904,259.269,224.325,256.774
0.401,38.297,1.908,1.908,259.269,224.351,256.838
0.402,38.398,1.906,1.906,259.288,224.397,256.925
0.403,38.540,1.894,1.894,259.328,224.468,257.041
0.405,38.722,1.870,1.870,259.387,224.561,257.185
0.406,38.936,1.835,1.835,259.461,224.674,257.353
0.407,39.177,1.792,1.792,259.545,224.803,257.538
0.408,39.436,1.744,1.744,259.634,224.944,257.736
0.410,39.707,1.695,1.695,259.724,225.094,257.943
0.411,39.983,1.648,1.648,259.810,225.250,258.153
0.412,40.256,1.607,1.607,259.888,225.407,258.362
0.413,40.520,1.575,1.575,259.953,225.564,258.565
0.415,40.769,1.557,1.557,260.001,225.716,258.757
0.416,40.998,1.552,1.552,260.027,225.860,258.933
0.417,41.209,1.559,1.559,260.035,225.995,259.094
0.418,41.404,1.575,1.575,260.027,226.123,259.241
0.420,41.583,1.599,1.599,260.007,226.242,259.373
0.421,41.747,1.627,1.627,259.978,226.352,259.492
0.422,41.898,1.657,1.657,259.944,226.454,259.597
0.424,42.034,1.687,1.687,259.906,226.547,259.690
0.425,42.157,1.715,1.715,259.870,226.631,259.771
0.426,42.264,1.739,1.739,259.838,226.706,259.840
0.427,42.355,1.759,1.759,259.812,226.772,259.899
0.429,42.432,1.775,1.775,259.796,226.829,259.947
0.430,42.494,1.787,1.787,259.786,226.877,259.985
0.431,42.544,1.795,1.795,259.784,226.917,260.014
0.432,42.583,1.799,1.799,259.785,226.950,260.035
0.434,42.612,1.798,1.798,259.791,226.976,260.048
0.435,42.634,1.794,1.794,259.798,226.996,260.053
0.436,42.650,1.786,1.786,259.807,227.010,260.052
0.437,42.664,1.775,1.775,259.815,227.018,260.044
0.439,42.679,1.764,1.764,259.821,227.022,260.032
0.440,42.696,1.752,1.752,259.825,227.021,260.014
0.441,42.716,1.741,1.741,259.826,227.017,259.995
0.442,42.735,1.732,1.732,259.828,227.012,259.977
0.444,42.749,1.726,1.726,259.830,227.008,259.964
0.445,42.756,1.725,1.725,259.835,227.006,259.960
0.446,42.769,1.729,1.729,259.845,227.007,259.968
0.448,42.799,1.736,1.736,259.862,227.014,259.992
0.449,42.850,1.746,1.746,259.887,227.028,260.035
0.450,42.928,1.758,1.758,259.921,227.050,260.101
0.451,43.037,1.771,1.771,259.967,227.083,260.194
0.453,43.179,1.783,1.783,260.026,227.127,260.315
0.454,43.347,1.793,1.793,260.095,227.181,260.459
0.455,43.535,1.801,1.801,260.171,227.240,260.620
0.456,43.735,1.807,1.807,260.252,227.304,260.792
0.458,43.941,1.810,1.810,260.335,227.369,260.968
0.459,44.144,1.811,1.811,260.417,227.433,261.143
0.460,44.338,1.810,1.810,260.496,227.493,261.310
0.461,44.516,1.808,1.808,260.569,227.546,261.464
0.463,44.671,1.805,1.805,260.634,227.591,261.597
0.464,44.795,1.801,1.801,260.686,227.623,261.704
0.465,44.886,1.797,1.797,260.727,227.644,261.783
0.466,44.948,1.794,1.794,260.755,227.655,261.837
0.468,44.985,1.790,1.790,260.774,227.659,261.869
0.469,45.001,1.787,1.787,260.783,227.658,261.881
0.470,45.006,1.784,1.784,260.785,227.654,261.878
0.472,45.024,1.782,1.782,260.779,227.650,261.862
0.473,45.053,1.781,1.781,260.768,227.647,261.835
0.474,45.090,1.779,1.779,260.752,227.650,261.802
0.475,45.132,1.779,1.779,260.732,227.659,261.765
0.477,45.179,1.779,1.779,260.711,227.677,261.728
0.478,45.228,1.779,1.779,260.690,227.702,261.692
0.479,45.275,1.776,1.776,260.673,227.733,261.661
0.480,45.317,1.771,1.771,260.665,227.767,261.636
0.482,45.355,1.763,1.763,260.669,227.801,261.621
0.483,45.393,1.749,1.749,260.688,227.833,261.617
0.484,45.441,1.730,1.730,260.726,227.861,261.628
0.485,45.512,1.704,1.704,260.787,227.883,261.655
0.487,45.612,1.672,1.672,260.875,227.895,261.702
0.488,45.748,1.635,1.635,260.993,227.895,261.770
0.489,45.923,1.596,1.596,261.143,227.883,261.860
0.491,46.131,1.556,1.556,261.318,227.860,261.968
0.492,46.362,1.517,1.517,261.512,227.829,262.090
0.493,46.608,1.482,1.482,261.718,227.793,262.220
0.494,46.862,1.451,1.451,261.929,227.753,262.354
0.496,47.113,1.427,1.427,262.140,227.712,262.486
0.497,47.354,1.410,1.410,262.341,227.674,262.612
0.498,47.576,1.400,1.400,262.528,227.640,262.726
0.499,47.770,1.394,1.394,262.693,227.612,262.825
0.501,47.928,1.392,1.392,262.830,227.594,262.903
0.502,48.049,1.394,1.394,262.935,227.585,262.960
0.503,48.134,1.396,1.396,263.011,227.581,262.998
0.504,48.188,1.400,1.400,263.060,227.579,263.022
0.506,48.214,1.403,1.403,263.082,227.574,263.034
0.507,48.225,1.405,1.405,263.081,227.563,263.037
0.508,48.257,1.407,1.407,263.056,227.542,263.036
0.509,48.314,1.410,1.410,263.011,227.508,263.033
0.511,48.396,1.414,1.414,262.946,227.457,263.033
0.512,48.506,1.419,1.419,262.864,227.385,263.037
0.513,48.643,1.428,1.428,262.767,227.290,263.050
0.515,48.803,1.440,1.440,262.658,227.173,263.070
