"T","Distance","Radius","FreeRadius","X","Y","Z"
0.000,0.000,0.942,0.942,227.973,183.509,209.681
0.002,0.056,0.958,0.958,227.925,183.537,209.683
0.003,0.111,0.973,0.973,227.877,183.565,209.684
0.005,0.164,0.986,0.986,227.832,183.592,209.684
0.006,0.214,0.999,0.999,227.789,183.617,209.681
0.008,0.259,1.010,1.010,227.751,183.641,209.676
0.009,0.300,1.018,1.018,227.718,183.663,209.667
0.011,0.336,1.023,1.023,227.691,183.682,209.653
0.012,0.367,1.025,1.025,227.671,183.699,209.635
0.014,0.397,1.025,1.025,227.660,183.711,209.610
0.015,0.430,1.022,1.022,227.658,183.720,209.579
0.017,0.469,1.017,1.017,227.665,183.725,209.541
0.018,0.516,1.010,1.010,227.680,183.727,209.496
0.020,0.566,1.001,1.001,227.695,183.727,209.448
0.021,0.618,0.992,0.992,227.707,183.727,209.398
0.023,0.668,0.983,0.983,227.710,183.728,209.349
0.024,0.716,0.977,0.977,227.700,183.732,209.301
0.026,0.770,0.977,0.977,227.670,183.740,209.258
0.027,0.836,0.985,0.985,227.616,183.754,209.221
0.029,0.927,1.004,1.004,227.533,183.775,209.192
0.030,1.049,1.036,1.036,227.416,183.805,209.174
0.032,1.210,1.083,1.083,227.260,183.845,209.167
0.033,1.408,1.144,1.144,227.068,183.894,209.174
0.035,1.636,1.217,1.217,226.849,183.951,209.195
0.036,1.883,1.300,1.300,226.612,184.015,209.230
0.038,2.143,1.390,1.390,226.366,184.084,209.279
0.039,2.407,1.486,1.486,226.120,184.156,209.342
0.041,2.667,1.585,1.585,225.883,184.229,209.420
0.042,2.917,1.686,1.686,225.664,184.303,209.514
0.044,3.149,1.787,1.787,225.472,184.375,209.623
0.045,3.360,1.890,1.890,225.316,184.443,209.747
0.047,3.550,1.993,1.993,225.205,184.506,209.888
0.048,3.727,2.096,2.096,225.139,184.563,210.042
0.050,3.900,2.198,2.198,225.111,184.611,210.206
0.051,4.071,2.300,2.300,225.111,184.649,210.372
0.053,4.238,2.399,2.399,225.131,184.676,210.537
0.054,4.398,2.491,2.491,225.160,184.688,210.693
0.056,4.545,2.574,2.574,225.189,184.685,210.837
0.057,4.674,2.643,2.643,225.210,184.665,210.963
0.059,4.783,2.695,2.695,225.213,184.626,211.065
0.060,4.881,2.727,2.727,225.189,184.567,211.138
0.062,4.990,2.736,2.736,225.128,184.484,211.176
0.063,5.135,2.726,2.726,225.027,184.380,211.178
0.065,5.322,2.704,2.704,224.890,184.257,211.148
0.066,5.545,2.678,2.678,224.723,184.120,211.090
0.068,5.796,2.654,2.654,224.535,183.974,211.012
0.069,6.067,2.640,2.640,224.330,183.824,210.917
0.071,6.349,2.642,2.642,224.116,183.673,210.812
0.072,6.633,2.666,2.666,223.899,183.526,210.702
0.074,6.909,2.707,2.707,223.686,183.389,210.593
0.075,7.168,2.761,2.761,223.484,183.265,210.489
0.077,7.400,2.823,2.823,223.299,183.160,210.397
0.078,7.598,2.889,2.889,223.137,183.075,210.321
0.080,7.767,2.954,2.954,222.994,183.009,210.260
0.081,7.912,3.014,3.014,222.867,182.956,210.213
0.083,8.039,3.066,3.066,222.753,182.912,210.179
0.084,8.154,3.113,3.113,222.648,182.872,210.156
0.086,8.263,3.159,3.159,222.548,182.832,210.143
0.087,8.372,3.204,3.204,222.448,182.786,210.138
0.089,8.488,3.253,3.253,222.347,182.731,210.141
0.090,8.616,3.308,3.308,222.239,182.662,210.149
0.092,8.764,3.370,3.370,222.120,182.574,210.162
0.094,8.937,3.438,3.438,221.989,182.463,210.178
0.095,9.132,3.511,3.511,221.845,182.332,210.196
0.097,9.344,3.584,3.584,221.693,182.186,210.216
0.098,9.566,3.655,3.655,221.535,182.031,210.239
0.100,9.793,3.721,3.721,221.374,181.873,210.264
0.101,10.019,3.779,3.779,221.214,181.716,210.290
0.103,10.237,3.827,3.827,221.059,181.566,210.318
0.104,10.441,3.866,3.866,220.910,181.429,210.348
0.106,10.626,3.898,3.898,220.772,181.311,210.379
0.107,10.786,3.927,3.927,220.648,181.215,210.411
0.109,10.917,3.953,3.953,220.540,181.149,210.444
0.110,11.021,3.981,3.981,220.449,181.111,210.478
0.112,11.105,4.010,4.010,220.372,181.100,210.512
0.113,11.178,4.044,4.044,220.308,181.112,210.545
0.115,11.249,4.080,4.080,220.255,181.144,210.578
0.116,11.322,4.117,4.117,220.210,181.194,210.609
0.118,11.402,4.155,4.155,220.172,181.257,210.639
0.119,11.488,4.193,4.193,220.137,181.330,210.666
0.121,11.579,4.229,4.229,220.104,181.412,210.691
0.122,11.674,4.262,4.262,220.071,181.498,210.713
0.124,11.770,4.292,4.292,220.036,181.586,210.730
0.125,11.866,4.320,4.320,219.998,181.673,210.745
0.127,11.962,4.346,4.346,219.956,181.758,210.759
0.128,12.057,4.370,4.370,219.910,181.839,210.775
0.130,12.150,4.395,4.395,219.862,181.917,210.793
0.131,12.241,4.419,4.419,219.810,181.988,210.818
0.133,12.331,4.443,4.443,219.756,182.052,210.850
0.134,12.421,4.468,4.468,219.699,182.108,210.892
0.136,12.514,4.492,4.492,219.640,182.155,210.946
0.137,12.614,4.517,4.517,219.577,182.190,211.015
0.139,12.723,4.541,4.541,219.513,182.214,211.100
0.140,12.845,4.565,4.565,219.446,182.225,211.202
0.142,12.977,4.587,4.587,219.378,182.227,211.315
0.143,13.116,4.609,4.609,219.310,182.220,211.435
0.145,13.256,4.628,4.628,219.241,182.209,211.557
0.146,13.393,4.644,4.644,219.173,182.195,211.675
0.148,13.521,4.655,4.655,219.106,182.180,211.783
0.149,13.637,4.661,4.661,219.041,182.167,211.878
0.151,13.734,4.661,4.661,218.979,182.159,211.953
0.152,13.812,4.653,4.653,218.920,182.158,212.002
0.154,13.870,4.636,4.636,218.865,182.166,212.022
0.155,13.926,4.612,4.612,218.814,182.185,212.009
0.157,13.996,4.579,4.579,218.768,182.214,211.965
0.158,14.086,4.538,4.538,218.724,182.250,211.896
0.160,14.193,4.489,4.489,218.682,182.293,211.807
0.161,14.313,4.432,4.432,218.640,182.339,211.704
0.163,14.443,4.366,4.366,218.599,182.387,211.591
0.164,14.576,4.295,4.295,218.557,182.434,211.473
0.166,14.709,4.220,4.220,218.513,182.480,211.357
0.167,14.836,4.144,4.144,218.466,182.521,211.246
0.169,14.954,4.071,4.071,218.415,182.556,211.147
0.170,15.058,4.001,4.001,218.359,182.583,211.063
0.172,15.150,3.939,3.939,218.300,182.602,210.995
0.173,15.232,3.886,3.886,218.239,182.615,210.941
0.175,15.305,3.843,3.843,218.178,182.621,210.901
0.176,15.370,3.809,3.809,218.120,182.622,210.873
0.178,15.428,3.784,3.784,218.065,182.618,210.855
0.179,15.478,3.769,3.769,218.016,182.611,210.846
0.181,15.521,3.764,3.764,217.974,182.602,210.844
0.183,15.555,3.768,3.768,217.942,182.591,210.848
0.184,15.580,3.780,3.780,217.922,182.579,210.856
0.186,15.598,3.797,3.797,217.914,182.567,210.867
0.187,15.615,3.815,3.815,217.917,182.556,210.880
0.189,15.632,3.832,3.832,217.926,182.547,210.891
0.190,15.648,3.843,3.843,217.937,182.539,210.899
0.192,15.658,3.846,3.846,217.945,182.534,210.901
0.193,15.663,3.838,3.838,217.945,182.531,210.896
0.195,15.683,3.817,3.817,217.932,182.532,210.881
0.196,15.723,3.783,3.783,217.903,182.537,210.854
0.198,15.790,3.736,3.736,217.851,182.547,210.813
0.199,15.888,3.675,3.675,217.773,182.561,210.755
0.201,16.023,3.600,3.600,217.664,182.581,210.679
0.202,16.194,3.511,3.511,217.524,182.606,210.584
0.204,16.396,3.408,3.408,217.358,182.636,210.474
0.205,16.620,3.296,3.296,217.173,182.668,210.350
0.207,16.861,3.179,3.179,216.975,182.703,210.217
0.208,17.111,3.061,3.061,216.771,182.738,210.077
0.210,17.364,2.948,2.948,216.566,182.773,209.933
0.211,17.613,2.843,2.843,216.367,182.806,209.788
0.213,17.850,2.752,2.752,216.180,182.837,209.645
0.214,18.070,2.675,2.675,216.012,182.864,209.507
0.216,18.265,2.612,2.612,215.868,182.886,209.377
0.217,18.433,2.560,2.560,215.752,182.902,209.257
0.219,18.576,2.518,2.518,215.661,182.914,209.147
0.220,18.698,2.483,2.483,215.592,182.921,209.046
0.222,18.802,2.453,2.453,215.540,182.925,208.956
0.223,18.891,2.426,2.426,215.502,182.925,208.876
0.225,18.967,2.402,2.402,215.474,182.923,208.805
0.226,19.032,2.382,2.382,215.453,182.920,208.744
0.228,19.087,2.367,2.367,215.434,182.916,208.692
0.229,19.135,2.357,2.357,215.414,182.912,208.649
0.231,19.177,2.353,2.353,215.390,182.908,208.615
0.232,19.218,2.356,2.356,215.357,182.904,208.590
0.234,19.262,2.367,2.367,215.316,182.902,208.573
0.235,19.314,2.383,2.383,215.266,182.898,208.564
0.237,19.374,2.402,2.402,215.206,182.892,208.560
0.238,19.444,2.419,2.419,215.136,182.884,208.563
0.240,19.525,2.432,2.432,215.057,182.872,208.569
0.241,19.617,2.438,2.438,214.967,182.855,208.579
0.243,19.720,2.434,2.434,214.867,182.832,208.592
0.244,19.836,2.419,2.419,214.756,182.803,208.607
0.246,19.964,2.396,2.396,214.634,182.766,208.622
0.247,20.106,2.369,2.369,214.500,182.721,208.638
0.249,20.259,2.341,2.341,214.357,182.669,208.652
0.250,20.422,2.316,2.316,214.206,182.610,208.664
0.252,20.591,2.296,2.296,214.049,182.548,208.671
0.253,20.764,2.286,2.286,213.888,182.485,208.674
0.255,20.939,2.286,2.286,213.724,182.421,208.669
0.256,21.115,2.294,2.294,213.561,182.359,208.656
0.258,21.288,2.310,2.310,213.399,182.300,208.634
0.259,21.458,2.331,2.331,213.241,182.247,208.601
0.261,21.623,2.356,2.356,213.089,182.201,208.556
0.262,21.784,2.384,2.384,212.945,182.164,208.497
0.264,21.939,2.413,2.413,212.809,182.136,208.425
0.265,22.090,2.442,2.442,212.685,182.119,208.342
0.267,22.235,2.469,2.469,212.573,182.111,208.249
0.268,22.375,2.492,2.492,212.475,182.113,208.149
0.270,22.510,2.511,2.511,212.393,182.125,208.044
0.271,22.639,2.522,2.522,212.327,182.146,207.935
0.273,22.764,2.525,2.525,212.280,182.178,207.823
0.275,22.885,2.519,2.519,212.253,182.219,207.712
0.276,23.006,2.506,2.506,212.248,182.270,207.603
0.278,23.129,2.490,2.490,212.266,182.331,207.498
0.279,23.258,2.472,2.472,212.306,182.401,207.397
0.281,23.395,2.456,2.456,212.365,182.478,207.299
0.282,23.539,2.444,2.444,212.437,182.558,207.204
0.284,23.687,2.439,2.439,212.519,182.639,207.111
0.285,23.838,2.441,2.441,212.606,182.719,207.018
0.287,23.988,2.449,2.449,212.695,182.795,206.924
0.288,24.134,2.459,2.459,212.781,182.865,206.829
0.290,24.273,2.471,2.471,212.860,182.925,206.732
0.291,24.404,2.481,2.481,212.928,182.975,206.631
0.293,24.526,2.489,2.489,212.980,183.010,206.526
0.294,24.643,2.492,2.492,213.014,183.030,206.416
0.296,24.758,2.491,2.491,213.033,183.037,206.303
0.297,24.872,2.487,2.487,213.037,183.033,206.189
0.299,24.986,2.481,2.481,213.031,183.020,206.076
0.300,25.100,2.476,2.476,213.015,183.001,205.965
0.302,25.212,2.472,2.472,212.994,182.978,205.858
0.303,25.319,2.471,2.471,212.968,182.954,205.757
0.305,25.419,2.474,2.474,212.940,182.929,205.663
0.306,25.509,2.480,2.480,212.914,182.908,205.580
0.308,25.587,2.489,2.489,212.890,182.892,205.507
0.309,25.650,2.499,2.499,212.872,182.884,205.448
0.311,25.701,2.509,2.509,212.858,182.882,205.399
0.312,25.743,2.519,2.519,212.849,182.886,205.359
0.314,25.778,2.528,2.528,212.843,182.896,205.325
0.315,25.811,2.535,2.535,212.839,182.910,205.295
0.317,25.845,2.539,2.539,212.836,182.928,205.268
0.318,25.880,2.543,2.543,212.835,182.950,205.240
0.320,25.919,2.544,2.544,212.834,182.975,205.209
0.321,25.963,2.545,2.545,212.832,183.001,205.174
0.323,26.014,2.544,2.544,212.828,183.029,205.132
0.324,26.073,2.543,2.543,212.822,183.057,205.080
0.326,26.141,2.541,2.541,212.814,183.087,205.020
0.327,26.217,2.538,2.538,212.803,183.119,204.952
0.329,26.301,2.535,2.535,212.790,183.155,204.877
0.330,26.393,2.531,2.531,212.775,183.196,204.795
0.332,26.493,2.527,2.527,212.757,183.242,204.709
0.333,26.600,2.522,2.522,212.738,183.295,204.619
0.335,26.713,2.517,2.517,212.715,183.357,204.526
0.336,26.835,2.512,2.512,212.691,183.428,204.430
0.338,26.964,2.508,2.508,212.665,183.509,204.334
0.339,27.100,2.505,2.505,212.636,183.602,204.238
0.341,27.244,2.503,2.503,212.606,183.705,204.142
0.342,27.393,2.503,2.503,212.574,183.816,204.048
0.344,27.544,2.505,2.505,212.542,183.932,203.956
0.345,27.696,2.510,2.510,212.511,184.051,203.868
0.347,27.844,2.516,2.516,212.481,184.170,203.784
0.348,27.988,2.524,2.524,212.452,184.286,203.704
0.350,28.124,2.533,2.533,212.425,184.396,203.630
0.351,28.249,2.541,2.541,212.402,184.499,203.562
0.353,28.360,2.550,2.550,212.383,184.591,203.502
0.354,28.456,2.558,2.558,212.368,184.669,203.449
0.356,28.535,2.564,2.564,212.357,184.734,203.405
0.357,28.599,2.570,2.570,212.350,184.785,203.368
0.359,28.650,2.575,2.575,212.347,184.826,203.338
0.360,28.689,2.580,2.580,212.346,184.856,203.313
0.362,28.718,2.584,2.584,212.347,184.879,203.294
0.363,28.740,2.587,2.587,212.350,184.894,203.279
0.365,28.756,2.590,2.590,212.353,184.905,203.268
0.367,28.767,2.593,2.593,212.355,184.911,203.259
0.368,28.775,2.595,2.595,212.358,184.915,203.253
0.370,28.781,2.597,2.597,212.358,184.919,203.248
0.371,28.786,2.597,2.597,212.357,184.923,203.244
0.373,28.792,2.597,2.597,212.355,184.926,203.240
0.374,28.798,2.595,2.595,212.352,184.930,203.237
0.376,28.804,2.593,2.593,212.348,184.934,203.234
0.377,28.810,2.590,2.590,212.345,184.937,203.230
0.379,28.816,2.588,2.588,212.342,184.940,203.226
0.380,28.821,2.587,2.587,212.340,184.942,203.221
0.382,28.827,2.588,2.588,212.340,184.944,203.216
0.383,28.834,2.592,2.592,212.342,184.944,203.209
0.385,28.844,2.600,2.600,212.346,184.943,203.200
0.386,28.857,2.609,2.609,212.353,184.941,203.190
0.388,28.873,2.619,2.619,212.364,184.939,203.177
0.389,28.895,2.627,2.627,212.379,184.941,203.162
0.391,28.923,2.629,2.629,212.398,184.948,203.142
0.392,28.960,2.624,2.624,212.421,184.962,203.117
0.394,29.008,2.609,2.609,212.450,184.986,203.087
0.395,29.070,2.583,2.583,212.484,185.022,203.050
0.397,29.148,2.545,2.545,212.525,185.073,203.006
0.398,29.245,2.499,2.499,212.571,185.139,202.954
0.400,29.362,2.448,2.448,212.625,185.225,202.894
0.401,29.503,2.393,2.393,212.686,185.330,202.824
0.403,29.663,2.338,2.338,212.752,185.454,202.746
0.404,29.838,2.285,2.285,212.822,185.591,202.662
0.406,30.023,2.236,2.236,212.894,185.737,202.575
0.407,30.212,2.191,2.191,212.965,185.888,202.486
0.409,30.400,2.152,2.152,213.033,186.040,202.398
0.410,30.582,2.119,2.119,213.096,186.188,202.313
0.412,30.752,2.093,2.093,213.153,186.327,202.234
0.413,30.906,2.074,2.074,213.200,186.454,202.161
0.415,31.038,2.062,2.062,213.237,186.564,202.098
0.416,31.144,2.058,2.058,213.261,186.653,202.046
0.418,31.224,2.058,2.058,213.272,186.721,202.006
0.419,31.283,2.061,2.061,213.275,186.771,201.975
0.421,31.326,2.065,2.065,213.273,186.807,201.951
0.422,31.357,2.067,2.067,213.268,186.831,201.932
0.424,31.379,2.066,2.066,213.265,186.846,201.915
0.425,31.398,2.059,2.059,213.267,186.856,201.900
0.427,31.418,2.047,2.047,213.276,186.864,201.883
0.428,31.449,2.031,2.031,213.297,186.873,201.864
0.430,31.494,2.014,2.014,213.333,186.886,201.838
0.431,31.560,1.996,1.996,213.386,186.907,201.806
0.433,31.648,1.980,1.980,213.458,186.937,201.765
0.434,31.756,1.966,1.966,213.546,186.980,201.719
0.436,31.881,1.957,1.957,213.645,187.036,201.668
0.437,32.021,1.952,1.952,213.754,187.108,201.616
0.439,32.174,1.951,1.951,213.868,187.197,201.564
0.440,32.341,1.951,1.951,213.984,187.306,201.515
0.442,32.521,1.954,1.954,214.100,187.435,201.470
0.443,32.714,1.958,1.958,214.211,187.588,201.431
0.445,32.922,1.963,1.963,214.316,187.765,201.400
0.446,33.147,1.968,1.968,214.409,187.969,201.380
0.448,33.392,1.974,1.974,214.490,188.200,201.371
0.449,33.653,1.982,1.982,214.559,188.452,201.371
0.451,33.926,1.994,1.994,214.617,188.719,201.379
0.452,34.207,2.010,2.010,214.665,188.995,201.392
0.454,34.491,2.032,2.032,214.705,189.276,201.409
0.456,34.771,2.060,2.060,214.736,189.554,201.427
0.457,35.043,2.093,2.093,214.761,189.823,201.444
0.459,35.300,2.130,2.130,214.780,190.079,201.458
0.460,35.537,2.170,2.170,214.794,190.316,201.467
0.462,35.747,2.211,2.211,214.805,190.526,201.469
0.463,35.928,2.252,2.252,214.813,190.707,201.462
0.465,36.081,2.291,2.291,214.818,190.859,201.448
0.466,36.209,2.326,2.326,214.822,190.985,201.427
0.468,36.315,2.358,2.358,214.824,191.087,201.401
0.469,36.402,2.388,2.388,214.825,191.170,201.372
0.471,36.475,2.416,2.416,214.824,191.235,201.340
0.472,36.535,2.442,2.442,214.823,191.285,201.307
0.474,36.585,2.467,2.467,214.821,191.323,201.274
0.475,36.627,2.492,2.492,214.819,191.352,201.244
0.477,36.662,2.517,2.517,214.817,191.374,201.216
0.478,36.692,2.541,2.541,214.816,191.393,201.193
0.480,36.716,2.564,2.564,214.814,191.409,201.175
0.481,36.736,2.585,2.585,214.814,191.422,201.160
0.483,36.752,2.603,2.603,214.813,191.434,201.150
0.484,36.764,2.617,2.617,214.812,191.444,201.143
0.486,36.774,2.628,2.628,214.812,191.452,201.139
0.487,36.782,2.634,2.634,214.811,191.461,201.138
0.489,36.790,2.637,2.637,214.810,191.469,201.139
0.490,36.799,2.635,2.635,214.809,191.477,201.143
0.492,36.809,2.631,2.631,214.808,191.485,201.149
0.493,36.821,2.623,2.623,214.805,191.495,201.156
0.495,36.835,2.612,2.612,214.803,191.506,201.164
0.496,36.851,2.599,2.599,214.799,191.518,201.172
0.498,36.867,2.585,2.585,214.795,191.532,201.181
0.499,36.886,2.571,2.571,214.790,191.547,201.189
0.501,36.905,2.558,2.558,214.784,191.565,201.196
0.502,36.927,2.549,2.549,214.776,191.584,201.202
0.504,36.951,2.545,2.545,214.768,191.606,201.205
0.505,36.977,2.546,2.546,214.758,191.630,201.206
0.507,37.006,2.554,2.554,214.746,191.657,201.203
0.508,37.038,2.567,2.567,214.734,191.686,201.197
0.510,37.074,2.582,2.582,214.719,191.718,201.188
0.511,37.112,2.598,2.598,214.705,191.751,201.176
0.513,37.150,2.612,2.612,214.690,191.784,201.164
0.514,37.186,2.623,2.623,214.677,191.815,201.153
0.516,37.219,2.627,2.627,214.665,191.845,201.144
0.517,37.247,2.625,2.625,214.656,191.871,201.138
0.519,37.269,2.618,2.618,214.650,191.892,201.137
0.520,37.286,2.607,2.607,214.649,191.907,201.143
0.522,37.302,2.594,2.594,214.652,191.915,201.157
0.523,37.326,2.580,2.580,214.661,191.915,201.179
0.525,37.362,2.568,2.568,214.675,191.907,201.211
0.526,37.404,2.557,2.557,214.693,191.893,201.246
0.528,37.447,2.549,2.549,214.712,191.877,201.281
0.529,37.484,2.542,2.542,214.729,191.861,201.310
0.531,37.509,2.536,2.536,214.742,191.848,201.327
0.532,37.518,2.530,2.530,214.749,191.842,201.328
0.534,37.539,2.522,2.522,214.746,191.844,201.308
0.535,37.590,2.513,2.513,214.733,191.859,201.261
0.537,37.679,2.502,2.502,214.705,191.890,201.182
0.538,37.811,2.491,2.491,214.662,191.938,201.066
0.540,37.992,2.484,2.484,214.600,192.006,200.911
0.541,38.212,2.482,2.482,214.524,192.091,200.722
0.543,38.464,2.490,2.490,214.436,192.188,200.507
0.544,38.736,2.509,2.509,214.341,192.293,200.274
0.546,39.020,2.542,2.542,214.241,192.400,200.032
0.548,39.304,2.589,2.589,214.141,192.506,199.788
0.549,39.580,2.647,2.647,214.043,192.606,199.550
0.551,39.837,2.709,2.709,213.953,192.696,199.327
0.552,40.065,2.773,2.773,213.872,192.770,199.127
0.554,40.255,2.833,2.833,213.806,192.824,198.957
0.555,40.400,2.885,2.885,213.756,192.855,198.824
0.557,40.503,2.924,2.924,213.723,192.865,198.728
0.558,40.573,2.950,2.950,213.705,192.856,198.660
0.560,40.623,2.965,2.965,213.699,192.834,198.616
0.561,40.664,2.970,2.970,213.703,192.803,198.590
0.563,40.706,2.966,2.966,213.717,192.766,198.575
0.564,40.750,2.956,2.956,213.736,192.728,198.565
0.566,40.794,2.941,2.941,213.760,192.693,198.556
0.567,40.836,2.924,2.924,213.787,192.664,198.539
0.569,40.880,2.905,2.905,213.814,192.647,198.510
0.570,40.933,2.888,2.888,213.840,192.644,198.464
0.572,41.004,2.874,2.874,213.863,192.656,198.397
0.573,41.092,2.867,2.867,213.884,192.679,198.315
0.575,41.194,2.868,2.868,213.902,192.708,198.219
0.576,41.308,2.880,2.880,213.918,192.742,198.112
0.578,41.428,2.903,2.903,213.931,192.774,197.996
0.579,41.553,2.935,2.935,213.941,192.803,197.876
0.581,41.678,2.973,2.973,213.949,192.823,197.752
0.582,41.801,3.012,3.012,213.955,192.832,197.629
0.584,41.922,3.051,3.051,213.957,192.826,197.509
0.585,42.039,3.086,3.086,213.957,192.801,197.394
0.587,42.156,3.114,3.114,213.954,192.757,197.287
0.588,42.272,3.136,3.136,213.950,192.703,197.184
0.590,42.386,3.152,3.152,213.943,192.646,197.086
0.591,42.496,3.166,3.166,213.936,192.592,196.990
0.593,42.599,3.179,3.179,213.928,192.551,196.895
0.594,42.697,3.193,3.193,213.920,192.528,196.800
0.596,42.793,3.211,3.211,213.913,192.532,196.704
0.597,42.900,3.234,3.234,213.907,192.571,196.605
0.599,43.030,3.262,3.262,213.902,192.651,196.502
0.600,43.199,3.298,3.298,213.900,192.780,196.393
0.602,43.413,3.340,3.340,213.900,192.960,196.278
0.603,43.664,3.389,3.389,213.902,193.180,196.159
0.605,43.941,3.445,3.445,213.908,193.430,196.038
0.606,44.234,3.510,3.510,213.917,193.697,195.917
0.608,44.531,3.581,3.581,213.929,193.969,195.799
0.609,44.820,3.655,3.655,213.945,194.234,195.685
0.611,45.090,3.729,3.729,213.965,194.480,195.577
0.612,45.328,3.797,3.797,213.988,194.696,195.479
0.614,45.524,3.857,3.857,214.017,194.870,195.391
