"T","Distance","Radius","FreeRadius","X","Y","Z"
0.000,0.000,0.942,0.942,227.973,183.509,209.681
0.001,0.057,0.961,0.961,227.924,183.537,209.683
0.002,0.112,0.979,0.979,227.876,183.565,209.684
0.003,0.165,0.996,0.996,227.831,183.592,209.684
0.005,0.215,1.012,1.012,227.788,183.618,209.681
0.006,0.261,1.024,1.024,227.750,183.642,209.676
0.007,0.301,1.033,1.033,227.717,183.664,209.666
0.008,0.337,1.039,1.039,227.690,183.683,209.653
0.009,0.369,1.040,1.040,227.670,183.699,209.634
0.010,0.399,1.036,1.036,227.659,183.712,209.608
0.011,0.432,1.027,1.027,227.658,183.721,209.577
0.012,0.472,1.014,1.014,227.666,183.726,209.538
0.014,0.519,1.000,1.000,227.681,183.727,209.493
0.015,0.571,0.986,0.986,227.696,183.727,209.444
0.016,0.622,0.975,0.975,227.708,183.727,209.394
0.017,0.672,0.968,0.968,227.710,183.729,209.344
0.018,0.721,0.968,0.968,227.698,183.733,209.297
0.019,0.776,0.977,0.977,227.666,183.742,209.254
0.020,0.845,0.996,0.996,227.608,183.756,209.217
0.022,0.939,1.026,1.026,227.521,183.778,209.189
0.023,1.066,1.068,1.068,227.399,183.809,209.172
0.024,1.234,1.120,1.120,227.237,183.850,209.168
0.025,1.437,1.182,1.182,227.040,183.901,209.177
0.026,1.669,1.253,1.253,226.817,183.960,209.199
0.027,1.921,1.332,1.332,226.576,184.025,209.236
0.028,2.184,1.418,1.418,226.328,184.095,209.288
0.029,2.449,1.511,1.511,226.082,184.167,209.354
0.031,2.710,1.609,1.609,225.846,184.241,209.435
0.032,2.958,1.712,1.712,225.629,184.315,209.532
0.033,3.188,1.818,1.818,225.442,184.387,209.644
0.034,3.396,1.923,1.923,225.292,184.455,209.772
0.035,3.584,2.026,2.026,225.189,184.518,209.916
0.036,3.761,2.125,2.125,225.131,184.574,210.074
0.037,3.934,2.217,2.217,225.109,184.620,210.239
0.039,4.105,2.300,2.300,225.114,184.657,210.406
0.040,4.273,2.372,2.372,225.136,184.681,210.570
0.041,4.431,2.430,2.430,225.167,184.690,210.725
0.042,4.575,2.475,2.475,225.195,184.684,210.867
0.043,4.701,2.508,2.508,225.213,184.659,210.988
0.044,4.807,2.532,2.532,225.210,184.615,211.085
0.045,4.905,2.550,2.550,225.178,184.549,211.150
0.046,5.023,2.563,2.563,225.107,184.460,211.180
0.048,5.181,2.574,2.574,224.995,184.349,211.174
0.049,5.379,2.586,2.586,224.848,184.220,211.136
0.050,5.613,2.601,2.601,224.674,184.079,211.073
0.051,5.872,2.621,2.621,224.479,183.929,210.990
0.052,6.149,2.648,2.648,224.270,183.777,210.892
0.053,6.434,2.680,2.680,224.053,183.626,210.784
0.054,6.718,2.717,2.717,223.835,183.481,210.673
0.056,6.991,2.759,2.759,223.624,183.347,210.563
0.057,7.244,2.805,2.805,223.425,183.229,210.461
0.058,7.467,2.855,2.855,223.246,183.132,210.371
0.059,7.656,2.906,2.906,223.089,183.056,210.297
0.060,7.817,2.960,2.960,222.952,182.998,210.237
0.061,7.956,3.015,3.015,222.829,182.951,210.192
0.062,8.078,3.072,3.072,222.718,182.912,210.159
0.063,8.190,3.129,3.129,222.615,182.874,210.138
0.065,8.299,3.187,3.187,222.515,182.833,210.127
0.066,8.411,3.247,3.247,222.414,182.783,210.126
0.067,8.533,3.309,3.309,222.310,182.720,210.134
0.068,8.673,3.371,3.371,222.197,182.639,210.148
0.069,8.837,3.436,3.436,222.073,182.533,210.169
0.070,9.030,3.502,3.502,221.934,182.403,210.194
0.071,9.244,3.569,3.569,221.785,182.252,210.224
0.073,9.473,3.638,3.638,221.627,182.089,210.255
0.074,9.709,3.707,3.707,221.466,181.920,210.287
0.075,9.944,3.776,3.776,221.303,181.752,210.319
0.076,10.171,3.844,3.844,221.144,181.593,210.349
0.077,10.383,3.909,3.909,220.990,181.450,210.376
0.078,10.573,3.972,3.972,220.845,181.329,210.399
0.079,10.734,4.031,4.031,220.714,181.238,210.415
0.080,10.862,4.086,4.086,220.599,181.184,210.424
0.082,10.959,4.136,4.136,220.502,181.170,210.426
0.083,11.042,4.180,4.180,220.422,181.191,210.423
0.084,11.123,4.218,4.218,220.356,181.238,210.419
0.085,11.207,4.250,4.250,220.301,181.301,210.419
0.086,11.293,4.276,4.276,220.255,181.374,210.426
0.087,11.377,4.295,4.295,220.215,181.445,210.445
0.088,11.458,4.307,4.307,220.177,181.508,210.478
0.090,11.537,4.312,4.312,220.140,181.553,210.532
0.091,11.625,4.309,4.309,220.101,181.572,210.608
0.092,11.739,4.299,4.299,220.056,181.555,210.711
0.093,11.894,4.283,4.283,220.003,181.496,210.845
0.094,12.090,4.262,4.262,219.944,181.399,211.005
0.095,12.322,4.239,4.239,219.879,181.269,211.185
0.096,12.581,4.216,4.216,219.809,181.113,211.380
0.098,12.859,4.194,4.194,219.737,180.938,211.584
0.099,13.148,4.175,4.175,219.662,180.751,211.791
0.100,13.439,4.161,4.161,219.588,180.557,211.995
0.101,13.723,4.154,4.154,219.514,180.364,212.190
0.102,13.992,4.156,4.156,219.443,180.178,212.371
0.103,14.237,4.166,4.166,219.375,180.006,212.532
0.104,14.450,4.180,4.180,219.313,179.854,212.667
0.105,14.633,4.199,4.199,219.255,179.721,212.778
0.107,14.788,4.220,4.220,219.201,179.605,212.867
0.108,14.921,4.240,4.240,219.151,179.504,212.938
0.109,15.037,4.259,4.259,219.104,179.415,212.995
0.110,15.140,4.275,4.275,219.059,179.335,213.041
0.111,15.234,4.285,4.285,219.016,179.261,213.079
0.112,15.322,4.288,4.288,218.973,179.192,213.114
0.113,15.410,4.285,4.285,218.931,179.123,213.148
0.115,15.500,4.277,4.277,218.888,179.053,213.185
0.116,15.596,4.265,4.265,218.844,178.979,213.229
0.117,15.702,4.251,4.251,218.797,178.898,213.278
0.118,15.821,4.236,4.236,218.745,178.807,213.333
0.119,15.954,4.220,4.220,218.686,178.701,213.390
0.120,16.106,4.206,4.206,218.617,178.579,213.447
0.121,16.280,4.194,4.194,218.535,178.436,213.503
0.122,16.479,4.186,4.186,218.440,178.270,213.555
0.124,16.707,4.182,4.182,218.327,178.076,213.601
0.125,16.970,4.185,4.185,218.196,177.852,213.640
0.126,17.270,4.195,4.195,218.043,177.595,213.669
0.127,17.614,4.214,4.214,217.866,177.301,213.686
0.128,17.997,4.243,4.243,217.668,176.973,213.691
0.129,18.411,4.283,4.283,217.452,176.620,213.687
0.130,18.846,4.336,4.336,217.224,176.250,213.674
0.132,19.290,4.404,4.404,216.989,175.874,213.655
0.133,19.734,4.486,4.486,216.752,175.499,213.631
0.134,20.167,4.578,4.578,216.518,175.135,213.606
0.135,20.580,4.679,4.679,216.293,174.790,213.580
0.136,20.960,4.785,4.785,216.082,174.475,213.555
0.137,21.299,4.891,4.891,215.889,174.197,213.534
0.138,21.586,4.996,4.996,215.720,173.966,213.518
0.139,21.817,5.095,5.095,215.577,173.785,213.508
0.141,21.999,5.185,5.185,215.457,173.648,213.503
0.142,22.141,5.263,5.263,215.356,173.548,213.501
0.143,22.249,5.328,5.328,215.272,173.480,213.502
0.144,22.332,5.380,5.381,215.202,173.436,213.504
0.145,22.397,5.423,5.423,215.142,173.410,213.505
0.146,22.452,5.458,5.458,215.089,173.397,213.506
0.147,22.502,5.486,5.487,215.039,173.389,213.503
0.149,22.552,5.511,5.512,214.990,173.380,213.497
0.150,22.607,5.534,5.535,214.939,173.363,213.485
0.151,22.672,5.558,5.558,214.883,173.335,213.468
0.152,22.745,5.584,5.584,214.825,173.298,213.446
0.153,22.823,5.612,5.612,214.766,173.252,213.422
0.154,22.904,5.643,5.642,214.708,173.202,213.396
0.155,22.985,5.674,5.674,214.653,173.148,213.370
0.156,23.063,5.705,5.705,214.603,173.094,213.345
0.158,23.134,5.735,5.734,214.560,173.042,213.324
0.159,23.196,5.761,5.760,214.526,172.993,213.308
0.160,23.245,5.784,5.783,214.503,172.950,213.297
0.161,23.281,5.801,5.801,214.493,172.916,213.294
0.162,23.307,5.812,5.812,214.496,172.891,213.300
0.163,23.330,5.817,5.818,214.509,172.875,213.310
0.164,23.354,5.817,5.819,214.526,172.864,213.323
0.166,23.376,5.815,5.817,214.543,172.858,213.335
0.167,23.391,5.812,5.815,214.555,172.853,213.342
0.168,23.397,5.809,5.812,214.558,172.847,213.342
0.169,23.416,5.810,5.812,214.546,172.838,213.330
0.170,23.459,5.814,5.816,214.514,172.825,213.304
0.171,23.533,5.825,5.826,214.459,172.804,213.260
0.172,23.644,5.844,5.843,214.374,172.774,213.196
0.173,23.796,5.870,5.866,214.257,172.733,213.107
0.175,23.984,5.902,5.895,214.112,172.683,212.999
0.176,24.198,5.937,5.928,213.946,172.625,212.875
0.177,24.432,5.974,5.963,213.766,172.563,212.741
0.178,24.675,6.010,5.999,213.578,172.498,212.601
0.179,24.920,6.043,6.033,213.389,172.434,212.460
0.180,25.157,6.072,6.064,213.206,172.372,212.322
0.181,25.378,6.094,6.091,213.035,172.314,212.193
0.183,25.575,6.107,6.112,212.884,172.264,212.077
0.184,25.739,6.112,6.127,212.759,172.224,211.979
0.185,25.863,6.111,6.137,212.665,172.195,211.904
0.186,25.948,6.105,6.143,212.602,172.177,211.850
0.187,25.998,6.096,6.147,212.565,172.168,211.816
0.188,26.021,6.087,6.149,212.550,172.165,211.800
0.189,26.023,6.078,6.152,212.552,172.166,211.800
0.190,26.043,6.073,6.155,212.567,172.169,211.812
0.192,26.075,6.073,6.161,212.589,172.173,211.835
0.193,26.117,6.079,6.170,212.616,172.174,211.868
0.194,26.163,6.091,6.181,212.641,172.171,211.906
0.195,26.212,6.107,6.194,212.661,172.162,211.949
0.196,26.262,6.127,6.208,212.671,172.144,211.995
0.197,26.315,6.146,6.220,212.671,172.117,212.041
0.198,26.374,6.166,6.229,212.662,172.083,212.089
0.200,26.440,6.182,6.235,212.646,172.042,212.136
0.201,26.511,6.194,6.236,212.623,171.995,212.185
0.202,26.586,6.201,6.230,212.596,171.943,212.233
0.203,26.666,6.199,6.217,212.565,171.887,212.280
0.204,26.747,6.191,6.197,212.533,171.829,212.328
0.205,26.830,6.177,6.174,212.501,171.769,212.374
0.206,26.911,6.159,6.148,212.469,171.708,212.419
0.207,26.991,6.139,6.122,212.441,171.648,212.462
0.209,27.069,6.117,6.098,212.415,171.588,212.504
0.210,27.144,6.096,6.078,212.393,171.528,212.544
0.211,27.218,6.076,6.064,212.373,171.468,212.583
0.212,27.291,6.059,6.058,212.355,171.408,212.620
0.213,27.363,6.046,6.062,212.338,171.347,212.656
0.214,27.436,6.036,6.073,212.323,171.286,212.690
0.215,27.508,6.027,6.087,212.310,171.223,212.724
0.217,27.581,6.015,6.102,212.297,171.159,212.756
0.218,27.655,5.999,6.114,212.284,171.093,212.787
0.219,27.730,5.978,6.119,212.271,171.025,212.817
0.220,27.809,5.948,6.114,212.258,170.953,212.846
0.221,27.895,5.907,6.096,212.245,170.872,212.872
0.222,27.993,5.854,6.060,212.231,170.778,212.896
0.223,28.108,5.786,6.005,212.217,170.665,212.915
0.224,28.246,5.707,5.933,212.204,170.529,212.929
0.226,28.410,5.621,5.850,212.189,170.366,212.938
0.227,28.607,5.530,5.758,212.175,170.170,212.939
0.228,28.841,5.438,5.663,212.160,169.936,212.933
0.229,29.117,5.349,5.568,212.146,169.661,212.918
0.230,29.441,5.267,5.478,212.131,169.338,212.893
0.231,29.811,5.195,5.396,212.116,168.970,212.859
0.232,30.218,5.136,5.328,212.101,168.565,212.817
0.234,30.650,5.094,5.275,212.087,168.136,212.769
0.235,31.094,5.066,5.237,212.074,167.696,212.717
0.236,31.538,5.050,5.212,212.063,167.255,212.664
0.237,31.971,5.044,5.197,212.055,166.825,212.612
0.238,32.380,5.045,5.189,212.048,166.419,212.562
0.239,32.753,5.052,5.188,212.045,166.049,212.516
0.240,33.079,5.063,5.190,212.045,165.725,212.477
0.241,33.346,5.074,5.194,212.049,165.460,212.447
0.243,33.546,5.084,5.198,212.057,165.262,212.426
0.244,33.685,5.091,5.200,212.068,165.123,212.414
0.245,33.773,5.095,5.200,212.080,165.037,212.407
0.246,33.818,5.097,5.201,212.092,164.993,212.403
0.247,33.831,5.097,5.202,212.102,164.985,212.400
0.248,33.852,5.096,5.205,212.110,165.004,212.396
0.249,33.889,5.093,5.210,212.113,165.041,212.387
0.251,33.938,5.089,5.220,212.110,165.088,212.373
0.252,33.993,5.084,5.234,212.100,165.136,212.350
0.253,34.049,5.079,5.254,212.081,165.177,212.316
0.254,34.110,5.074,5.279,212.053,165.204,212.269
0.255,34.177,5.067,5.305,212.020,165.215,212.212
0.256,34.249,5.056,5.328,211.988,165.210,212.147
0.257,34.326,5.041,5.345,211.962,165.188,212.078
0.259,34.409,5.019,5.350,211.948,165.148,212.007
0.260,34.498,4.990,5.341,211.951,165.092,211.938
0.261,34.601,4.951,5.313,211.976,165.017,211.872
0.262,34.723,4.902,5.262,212.029,164.923,211.814
0.263,34.873,4.840,5.184,212.116,164.811,211.766
0.264,35.058,4.767,5.079,212.242,164.680,211.731
0.265,35.285,4.684,4.955,212.411,164.530,211.712
0.266,35.549,4.596,4.817,212.618,164.365,211.710
0.268,35.842,4.504,4.673,212.853,164.192,211.723
0.269,36.153,4.412,4.530,213.108,164.016,211.752
0.270,36.473,4.324,4.394,213.374,163.843,211.796
0.271,36.791,4.241,4.273,213.640,163.680,211.854
0.272,37.098,4.166,4.174,213.899,163.531,211.928
0.273,37.384,4.104,4.102,214.140,163.405,212.015
0.274,37.642,4.054,4.061,214.355,163.305,212.117
0.276,37.865,4.016,4.043,214.535,163.239,212.232
0.277,38.054,3.988,4.045,214.671,163.212,212.359
0.278,38.221,3.967,4.061,214.765,163.221,212.498
0.279,38.384,3.954,4.085,214.823,163.261,212.644
0.280,38.550,3.945,4.113,214.855,163.324,212.794
0.281,38.721,3.941,4.138,214.867,163.405,212.946
0.282,38.896,3.939,4.156,214.866,163.496,213.095
0.283,39.068,3.937,4.162,214.861,163.591,213.238
0.285,39.232,3.935,4.153,214.858,163.684,213.373
0.286,39.381,3.934,4.133,214.865,163.768,213.496
0.287,39.511,3.931,4.105,214.890,163.836,213.603
0.288,39.623,3.929,4.070,214.940,163.883,213.692
0.289,39.729,3.925,4.031,215.016,163.908,213.762
0.290,39.842,3.921,3.991,215.114,163.912,213.816
0.291,39.966,3.916,3.953,215.231,163.900,213.857
0.293,40.102,3.909,3.918,215.362,163.875,213.886
0.294,40.249,3.901,3.889,215.503,163.841,213.906
0.295,40.402,3.892,3.866,215.651,163.801,213.920
0.296,40.559,3.881,3.849,215.800,163.757,213.929
0.297,40.713,3.869,3.836,215.949,163.714,213.938
0.298,40.861,3.855,3.825,216.091,163.675,213.947
0.299,40.998,3.841,3.816,216.224,163.643,213.959
0.300,41.123,3.824,3.807,216.346,163.621,213.976
0.302,41.239,3.807,3.798,216.459,163.608,213.996
0.303,41.349,3.788,3.786,216.567,163.605,214.021
0.304,41.457,3.768,3.772,216.670,163.613,214.048
0.305,41.565,3.746,3.753,216.773,163.631,214.077
0.306,41.678,3.723,3.732,216.877,163.660,214.109
0.307,41.797,3.698,3.707,216.984,163.701,214.142
0.308,41.927,3.672,3.680,217.098,163.754,214.175
0.310,42.070,3.643,3.650,217.221,163.818,214.209
0.311,42.228,3.613,3.617,217.354,163.896,214.243
0.312,42.401,3.580,3.582,217.500,163.984,214.276
0.313,42.586,3.544,3.545,217.654,164.082,214.310
0.314,42.779,3.507,3.505,217.813,164.184,214.343
0.315,42.974,3.467,3.465,217.975,164.288,214.376
0.316,43.167,3.427,3.425,218.135,164.390,214.410
0.317,43.353,3.388,3.386,218.291,164.486,214.445
0.319,43.529,3.350,3.348,218.439,164.574,214.482
0.320,43.690,3.316,3.314,218.575,164.650,214.520
0.321,43.832,3.285,3.284,218.698,164.710,214.560
0.322,43.952,3.260,3.259,218.802,164.751,214.602
0.323,44.050,3.241,3.241,218.887,164.772,214.646
0.324,44.131,3.229,3.229,218.953,164.774,214.692
0.325,44.200,3.223,3.224,219.003,164.760,214.739
0.327,44.265,3.222,3.223,219.039,164.735,214.786
0.328,44.327,3.225,3.226,219.062,164.700,214.832
0.329,44.390,3.231,3.231,219.074,164.659,214.877
0.330,44.452,3.237,3.238,219.078,164.614,214.921
0.331,44.512,3.244,3.244,219.075,164.570,214.961
0.332,44.568,3.248,3.248,219.068,164.529,214.999
0.333,44.617,3.250,3.250,219.058,164.494,215.032
0.334,44.658,3.247,3.247,219.048,164.467,215.061
0.336,44.690,3.240,3.240,219.041,164.448,215.085
0.337,44.715,3.227,3.227,219.043,164.432,215.105
0.338,44.741,3.208,3.208,219.058,164.419,215.122
0.339,44.779,3.182,3.182,219.090,164.406,215.137
0.340,44.836,3.148,3.148,219.144,164.391,215.148
0.341,44.919,3.106,3.106,219.224,164.371,215.158
0.342,45.034,3.055,3.055,219.335,164.344,215.166
0.344,45.185,2.995,2.995,219.482,164.308,215.173
0.345,45.377,2.925,2.925,219.668,164.260,215.179
0.346,45.615,2.847,2.847,219.898,164.198,215.185
0.347,45.891,2.766,2.766,220.164,164.125,215.190
0.348,46.197,2.683,2.683,220.458,164.044,215.193
0.349,46.521,2.602,2.602,220.771,163.956,215.194
0.350,46.855,2.525,2.525,221.092,163.866,215.193
0.351,47.188,2.455,2.455,221.413,163.776,215.188
0.353,47.512,2.395,2.395,221.724,163.689,215.179
0.354,47.815,2.348,2.348,222.017,163.608,215.165
0.355,48.090,2.315,2.315,222.281,163.536,215.145
0.356,48.325,2.295,2.295,222.507,163.477,215.119
0.357,48.514,2.286,2.286,222.687,163.432,215.086
0.358,48.657,2.285,2.285,222.822,163.402,215.047
0.359,48.763,2.292,2.292,222.917,163.384,215.005
0.361,48.838,2.303,2.303,222.979,163.377,214.962
0.362,48.893,2.318,2.318,223.012,163.380,214.919
0.363,48.935,2.333,2.333,223.023,163.390,214.879
0.364,48.974,2.347,2.347,223.019,163.406,214.844
0.365,49.011,2.359,2.359,223.003,163.426,214.816
0.366,49.046,2.368,2.368,222.983,163.447,214.798
0.367,49.076,2.375,2.375,222.965,163.469,214.791
0.368,49.100,2.380,2.380,222.953,163.490,214.797
0.370,49.127,2.384,2.384,222.950,163.509,214.816
0.371,49.161,2.386,2.386,222.957,163.525,214.845
0.372,49.202,2.386,2.386,222.974,163.538,214.880
0.373,49.251,2.385,2.385,223.001,163.549,214.919
0.374,49.306,2.384,2.384,223.039,163.557,214.959
0.375,49.367,2.381,2.381,223.087,163.562,214.997
0.376,49.434,2.378,2.378,223.145,163.564,215.029
0.378,49.507,2.373,2.373,223.214,163.563,215.053
0.379,49.589,2.369,2.369,223.294,163.558,215.066
0.380,49.680,2.363,2.363,223.386,163.550,215.065
0.381,49.784,2.358,2.358,223.487,163.538,215.049
0.382,49.898,2.352,2.352,223.597,163.524,215.021
0.383,50.020,2.345,2.345,223.712,163.507,214.984
0.384,50.148,2.339,2.339,223.831,163.488,214.939
0.385,50.280,2.332,2.332,223.951,163.467,214.891
0.387,50.411,2.325,2.325,224.070,163.444,214.840
0.388,50.540,2.318,2.318,224.187,163.421,214.791
0.389,50.662,2.311,2.311,224.298,163.397,214.745
0.390,50.775,2.303,2.303,224.401,163.373,214.706
0.391,50.877,2.295,2.295,224.494,163.349,214.675
0.392,50.965,2.287,2.287,224.577,163.325,214.654
0.393,51.042,2.279,2.279,224.649,163.303,214.641
0.395,51.108,2.270,2.270,224.712,163.282,214.635
0.396,51.165,2.261,2.261,224.766,163.263,214.633
0.397,51.214,2.252,2.252,224.812,163.246,214.635
0.398,51.256,2.244,2.244,224.851,163.232,214.639
0.399,51.290,2.237,2.237,224.883,163.220,214.642
0.400,51.318,2.233,2.233,224.909,163.212,214.643
0.401,51.340,2.230,2.230,224.931,163.208,214.641
0.402,51.359,2.231,2.231,224.948,163.208,214.633
0.404,51.378,2.234,2.234,224.962,163.212,214.620
0.405,51.399,2.242,2.242,224.972,163.218,214.603
0.406,51.420,2.252,2.252,224.980,163.226,214.585
0.407,51.439,2.263,2.263,224.986,163.234,214.568
0.408,51.453,2.273,2.273,224.989,163.239,214.556
0.409,51.459,2.281,2.281,224.990,163.241,214.551
0.410,51.464,2.284,2.284,224.990,163.238,214.554
0.412,51.482,2.281,2.281,224.989,163.229,214.570
0.413,51.517,2.270,2.270,224.988,163.212,214.601
0.414,51.572,2.249,2.249,224.986,163.186,214.648
0.415,51.648,2.216,2.216,224.984,163.149,214.715
0.416,51.744,2.172,2.172,224.982,163.102,214.799
0.417,51.856,2.119,2.119,224.980,163.048,214.897
0.418,51.982,2.059,2.059,224.979,162.987,215.007
0.420,52.119,1.993,1.993,224.978,162.920,215.127
0.421,52.264,1.924,1.924,224.978,162.850,215.254
0.422,52.414,1.852,1.852,224.978,162.778,215.385
0.423,52.566,1.781,1.781,224.980,162.704,215.518
0.424,52.717,1.710,1.710,224.982,162.631,215.650
0.425,52.864,1.644,1.644,224.986,162.559,215.779
0.426,53.006,1.581,1.581,224.991,162.491,215.903
0.427,53.142,1.524,1.524,224.998,162.426,216.022
0.429,53.274,1.473,1.473,225.007,162.364,216.138
0.430,53.404,1.430,1.430,225.021,162.306,216.253
0.431,53.533,1.394,1.394,225.038,162.250,216.368
0.432,53.663,1.366,1.366,225.061,162.198,216.486
0.433,53.797,1.348,1.348,225.090,162.149,216.607
0.434,53.935,1.341,1.341,225.125,162.103,216.733
0.435,54.081,1.344,1.344,225.168,162.060,216.865
0.437,54.237,1.357,1.357,225.219,162.020,217.007
0.438,54.404,1.378,1.378,225.279,161.983,217.158
0.439,54.579,1.405,1.405,225.346,161.948,217.316
0.440,54.760,1.436,1.436,225.418,161.915,217.479
0.441,54.942,1.469,1.469,225.493,161.882,217.641
0.442,55.121,1.503,1.503,225.569,161.849,217.800
0.443,55.292,1.535,1.535,225.642,161.816,217.951
0.444,55.452,1.564,1.564,225.711,161.781,218.091
0.446,55.596,1.589,1.589,225.772,161.743,218.216
0.447,55.721,1.608,1.608,225.825,161.702,218.321
0.448,55.824,1.621,1.621,225.866,161.658,218.404
0.449,55.904,1.628,1.628,225.893,161.608,218.461
0.450,55.968,1.628,1.628,225.907,161.554,218.492
0.451,56.029,1.620,1.620,225.910,161.494,218.501
0.452,56.095,1.605,1.605,225.905,161.429,218.492
0.454,56.170,1.581,1.581,225.896,161.358,218.467
0.455,56.256,1.549,1.549,225.883,161.282,218.430
0.456,56.350,1.508,1.508,225.871,161.200,218.386
0.457,56.450,1.460,1.460,225.862,161.112,218.337
0.458,56.556,1.408,1.408,225.858,161.019,218.287
0.459,56.667,1.355,1.355,225.862,160.919,218.240
0.460,56.781,1.303,1.303,225.877,160.814,218.199
0.461,56.900,1.255,1.255,225.905,160.703,218.165
