"T","Distance","Radius","FreeRadius","X","Y","Z"
0.000,0.000,1.324,1.324,213.013,181.007,169.111
0.001,0.103,1.275,1.275,213.094,180.978,169.054
0.003,0.207,1.228,1.228,213.176,180.951,168.997
0.004,0.309,1.183,1.183,213.259,180.930,168.941
0.006,0.412,1.143,1.143,213.345,180.917,168.886
0.007,0.517,1.107,1.107,213.435,180.915,168.833
0.008,0.624,1.078,1.078,213.529,180.928,168.782
0.010,0.738,1.057,1.057,213.629,180.956,168.734
0.011,0.863,1.044,1.044,213.734,181.005,168.689
0.013,1.002,1.040,1.040,213.847,181.075,168.647
0.014,1.161,1.042,1.042,213.967,181.171,168.610
0.016,1.342,1.050,1.050,214.096,181.294,168.576
0.017,1.550,1.061,1.061,214.235,181.446,168.547
0.018,1.779,1.075,1.075,214.379,181.623,168.520
0.020,2.026,1.090,1.090,214.528,181.818,168.492
0.021,2.284,1.105,1.105,214.677,182.026,168.462
0.023,2.549,1.121,1.121,214.826,182.243,168.427
0.024,2.816,1.140,1.140,214.970,182.463,168.385
0.025,3.078,1.164,1.164,215.107,182.680,168.333
0.027,3.332,1.195,1.195,215.235,182.890,168.269
0.028,3.573,1.235,1.235,215.351,183.087,168.191
0.030,3.799,1.287,1.287,215.453,183.265,168.096
0.031,4.009,1.353,1.353,215.537,183.420,167.983
0.033,4.205,1.430,1.430,215.602,183.549,167.850
0.034,4.393,1.514,1.514,215.651,183.654,167.702
0.035,4.576,1.601,1.601,215.687,183.738,167.543
0.037,4.756,1.686,1.686,215.710,183.804,167.378
0.038,4.932,1.765,1.765,215.723,183.855,167.210
0.040,5.102,1.833,1.833,215.729,183.894,167.044
0.041,5.265,1.886,1.886,215.729,183.923,166.885
0.042,5.416,1.924,1.924,215.727,183.946,166.735
0.044,5.552,1.949,1.949,215.724,183.964,166.601
0.045,5.669,1.966,1.966,215.722,183.982,166.485
0.047,5.763,1.978,1.978,215.723,184.002,166.392
0.048,5.836,1.988,1.988,215.730,184.025,166.324
0.050,5.892,2.001,2.001,215.743,184.051,166.276
0.051,5.937,2.020,2.020,215.761,184.079,166.246
0.052,5.979,2.047,2.047,215.787,184.108,166.229
0.054,6.024,2.079,2.079,215.819,184.138,166.223
0.055,6.075,2.117,2.117,215.859,184.169,166.224
0.057,6.132,2.158,2.158,215.908,184.199,166.228
0.058,6.196,2.200,2.200,215.965,184.229,166.232
0.059,6.268,2.242,2.242,216.031,184.257,166.233
0.061,6.349,2.283,2.283,216.107,184.283,166.227
0.062,6.440,2.320,2.320,216.194,184.307,166.210
0.064,6.541,2.356,2.356,216.289,184.327,166.182
0.065,6.651,2.389,2.389,216.391,184.345,166.145
0.067,6.768,2.421,2.421,216.497,184.361,166.099
0.068,6.888,2.451,2.451,216.604,184.375,166.047
0.069,7.009,2.479,2.479,216.710,184.386,165.989
0.071,7.129,2.507,2.507,216.813,184.396,165.927
0.072,7.245,2.534,2.534,216.909,184.405,165.863
0.074,7.355,2.560,2.560,216.996,184.412,165.798
0.075,7.455,2.586,2.586,217.073,184.419,165.734
0.076,7.543,2.611,2.611,217.135,184.424,165.671
0.078,7.618,2.635,2.635,217.181,184.429,165.612
0.079,7.681,2.658,2.658,217.213,184.434,165.558
0.081,7.734,2.680,2.680,217.235,184.438,165.511
0.082,7.776,2.700,2.700,217.251,184.443,165.472
0.084,7.809,2.720,2.720,217.266,184.446,165.443
0.085,7.833,2.739,2.739,217.282,184.450,165.426
0.086,7.857,2.756,2.756,217.306,184.453,165.421
0.088,7.893,2.772,2.772,217.340,184.457,165.432
0.089,7.949,2.787,2.787,217.389,184.460,165.459
0.091,8.032,2.801,2.801,217.457,184.464,165.505
0.092,8.144,2.813,2.813,217.549,184.467,165.570
0.093,8.291,2.826,2.826,217.667,184.470,165.656
0.095,8.467,2.839,2.839,217.810,184.474,165.761
0.096,8.667,2.856,2.856,217.970,184.478,165.880
0.098,8.884,2.877,2.877,218.144,184.482,166.009
0.099,9.111,2.903,2.903,218.326,184.486,166.145
0.101,9.342,2.937,2.937,218.511,184.490,166.283
0.102,9.569,2.979,2.979,218.692,184.495,166.420
0.103,9.787,3.029,3.029,218.866,184.500,166.551
0.105,9.989,3.082,3.082,219.027,184.505,166.673
0.106,10.167,3.136,3.136,219.169,184.510,166.781
0.108,10.316,3.189,3.189,219.287,184.516,166.872
0.109,10.430,3.237,3.237,219.377,184.523,166.942
0.110,10.513,3.276,3.276,219.442,184.529,166.993
0.112,10.568,3.306,3.306,219.485,184.534,167.027
0.113,10.601,3.324,3.324,219.510,184.538,167.047
0.115,10.616,3.334,3.334,219.522,184.540,167.056
0.116,10.618,3.338,3.338,219.524,184.540,167.056
0.118,10.626,3.338,3.338,219.520,184.537,167.050
0.119,10.639,3.337,3.337,219.515,184.530,167.040
0.120,10.655,3.336,3.336,219.512,184.519,167.028
0.122,10.674,3.338,3.338,219.515,184.504,167.018
0.123,10.699,3.345,3.345,219.528,184.483,167.012
0.125,10.736,3.355,3.355,219.553,184.457,167.012
0.126,10.785,3.367,3.367,219.591,184.426,167.016
0.127,10.843,3.382,3.382,219.638,184.392,167.024
0.129,10.910,3.397,3.397,219.692,184.355,167.034
0.130,10.983,3.412,3.412,219.753,184.316,167.046
0.132,11.060,3.426,3.426,219.818,184.277,167.056
0.133,11.138,3.440,3.440,219.885,184.238,167.066
0.135,11.216,3.452,3.452,219.953,184.200,167.072
0.136,11.290,3.462,3.462,220.019,184.165,167.075
0.137,11.361,3.472,3.472,220.082,184.133,167.072
0.139,11.425,3.482,3.482,220.139,184.106,167.062
0.140,11.484,3.490,3.490,220.190,184.083,167.046
0.142,11.537,3.498,3.498,220.236,184.065,167.025
0.143,11.586,3.505,3.505,220.277,184.050,167.003
0.144,11.630,3.510,3.510,220.314,184.038,166.981
0.146,11.669,3.513,3.513,220.347,184.028,166.964
0.147,11.704,3.513,3.513,220.379,184.020,166.952
0.149,11.734,3.508,3.508,220.408,184.013,166.950
0.150,11.765,3.498,3.498,220.437,184.005,166.959
0.152,11.803,3.481,3.481,220.466,183.997,166.983
0.153,11.855,3.458,3.458,220.495,183.988,167.023
0.154,11.923,3.428,3.428,220.527,183.976,167.083
0.156,12.011,3.395,3.395,220.560,183.963,167.164
0.157,12.117,3.358,3.358,220.595,183.948,167.262
0.159,12.237,3.320,3.320,220.633,183.932,167.375
0.160,12.370,3.281,3.281,220.673,183.916,167.501
0.161,12.513,3.244,3.244,220.715,183.902,167.636
0.163,12.663,3.209,3.209,220.759,183.888,167.780
0.164,12.819,3.177,3.177,220.805,183.878,167.928
0.166,12.977,3.147,3.147,220.854,183.870,168.079
0.167,13.136,3.119,3.119,220.905,183.866,168.229
0.169,13.293,3.094,3.094,220.959,183.866,168.377
0.170,13.446,3.070,3.070,221.014,183.872,168.519
0.171,13.594,3.049,3.049,221.072,183.883,168.655
0.173,13.737,3.029,3.029,221.132,183.898,168.784
0.174,13.875,3.011,3.011,221.193,183.915,168.906
0.176,14.007,2.994,2.994,221.254,183.933,169.022
0.177,14.133,2.978,2.978,221.316,183.952,169.130
0.178,14.253,2.963,2.963,221.378,183.969,169.231
0.180,14.366,2.948,2.948,221.439,183.984,169.325
0.181,14.473,2.933,2.933,221.500,183.995,169.412
0.183,14.571,2.917,2.917,221.558,184.001,169.491
0.184,14.663,2.902,2.902,221.615,184.001,169.563
0.186,14.747,2.885,2.885,221.670,183.994,169.627
0.187,14.826,2.867,2.867,221.722,183.979,169.683
0.188,14.900,2.847,2.847,221.773,183.956,169.733
0.190,14.972,2.826,2.826,221.822,183.926,169.776
0.191,15.044,2.802,2.802,221.870,183.889,169.814
0.193,15.117,2.776,2.776,221.918,183.844,169.847
0.194,15.192,2.747,2.747,221.967,183.793,169.875
0.195,15.272,2.716,2.716,222.015,183.736,169.898
0.197,15.355,2.683,2.683,222.065,183.672,169.919
0.198,15.444,2.649,2.649,222.117,183.602,169.936
0.200,15.538,2.615,2.615,222.170,183.526,169.951
0.201,15.638,2.580,2.580,222.226,183.444,169.964
0.203,15.742,2.545,2.545,222.283,183.357,169.975
0.204,15.850,2.511,2.511,222.342,183.268,169.985
0.205,15.959,2.478,2.478,222.401,183.177,169.994
0.207,16.067,2.447,2.447,222.460,183.086,170.003
0.208,16.174,2.418,2.418,222.517,182.996,170.012
0.210,16.277,2.394,2.394,222.572,182.910,170.020
0.211,16.374,2.373,2.373,222.625,182.829,170.029
0.212,16.464,2.357,2.357,222.673,182.754,170.039
0.214,16.545,2.346,2.346,222.718,182.686,170.050
0.215,16.617,2.339,2.339,222.757,182.628,170.063
0.217,16.677,2.333,2.333,222.790,182.580,170.077
0.218,16.727,2.328,2.328,222.817,182.541,170.094
0.220,16.772,2.321,2.321,222.840,182.508,170.113
0.221,16.812,2.312,2.312,222.859,182.480,170.136
0.222,16.853,2.298,2.298,222.874,182.454,170.162
0.224,16.895,2.279,2.279,222.887,182.427,170.193
0.225,16.942,2.255,2.255,222.898,182.397,170.228
0.227,16.996,2.228,2.228,222.907,182.363,170.268
0.228,17.058,2.197,2.197,222.916,182.322,170.313
0.229,17.131,2.163,2.163,222.925,182.271,170.365
0.231,17.217,2.128,2.128,222.935,182.208,170.423
0.232,17.317,2.093,2.093,222.946,182.132,170.487
0.234,17.431,2.058,2.058,222.960,182.043,170.557
0.235,17.556,2.023,2.023,222.975,181.944,170.632
0.237,17.691,1.988,1.988,222.993,181.835,170.709
0.238,17.833,1.954,1.954,223.015,181.719,170.789
0.239,17.982,1.921,1.921,223.039,181.596,170.868
0.241,18.135,1.888,1.888,223.068,181.468,170.948
0.242,18.291,1.856,1.856,223.101,181.337,171.025
0.244,18.448,1.825,1.825,223.139,181.204,171.099
0.245,18.604,1.795,1.795,223.182,181.070,171.169
0.246,18.759,1.769,1.769,223.230,180.938,171.233
0.248,18.912,1.745,1.745,223.284,180.807,171.291
0.249,19.061,1.726,1.726,223.342,180.680,171.343
0.251,19.205,1.713,1.713,223.401,180.557,171.389
0.252,19.344,1.705,1.705,223.462,180.440,171.432
0.254,19.476,1.705,1.705,223.521,180.328,171.470
0.255,19.600,1.711,1.711,223.577,180.223,171.504
0.256,19.714,1.722,1.722,223.629,180.127,171.536
0.258,19.817,1.734,1.734,223.674,180.039,171.566
0.259,19.908,1.748,1.748,223.712,179.961,171.594
0.261,19.985,1.760,1.760,223.741,179.895,171.621
0.262,20.049,1.769,1.769,223.758,179.839,171.648
0.263,20.101,1.773,1.773,223.763,179.795,171.675
0.265,20.146,1.772,1.772,223.758,179.759,171.701
0.266,20.189,1.767,1.767,223.742,179.727,171.725
0.268,20.234,1.759,1.759,223.716,179.696,171.746
0.269,20.285,1.748,1.748,223.682,179.663,171.765
0.271,20.344,1.736,1.736,223.641,179.624,171.779
0.272,20.413,1.724,1.724,223.592,179.576,171.790
0.273,20.495,1.713,1.713,223.537,179.516,171.794
0.275,20.592,1.703,1.703,223.476,179.440,171.793
0.276,20.708,1.695,1.695,223.411,179.345,171.785
0.278,20.845,1.690,1.690,223.343,179.227,171.769
0.279,21.003,1.688,1.688,223.271,179.088,171.746
0.280,21.179,1.691,1.691,223.198,178.931,171.717
0.282,21.366,1.697,1.697,223.125,178.762,171.684
0.283,21.560,1.709,1.709,223.053,178.586,171.647
0.285,21.756,1.726,1.726,222.982,178.407,171.608
0.286,21.950,1.746,1.746,222.915,178.229,171.569
0.288,22.135,1.767,1.767,222.852,178.059,171.530
0.289,22.308,1.787,1.787,222.795,177.901,171.493
0.290,22.462,1.804,1.804,222.745,177.759,171.460
0.292,22.593,1.816,1.816,222.703,177.638,171.430
0.293,22.697,1.822,1.822,222.670,177.542,171.407
0.295,22.773,1.820,1.820,222.646,177.472,171.390
0.296,22.824,1.811,1.811,222.632,177.424,171.380
0.297,22.857,1.799,1.799,222.627,177.392,171.375
0.299,22.876,1.785,1.785,222.631,177.374,171.377
0.300,22.893,1.770,1.770,222.644,177.365,171.385
0.302,22.919,1.758,1.758,222.665,177.360,171.400
0.303,22.955,1.749,1.749,222.694,177.357,171.420
0.305,23.001,1.745,1.745,222.731,177.351,171.447
0.306,23.058,1.747,1.747,222.776,177.338,171.480
0.307,23.128,1.753,1.753,222.829,177.314,171.519
0.309,23.213,1.762,1.762,222.889,177.276,171.564
0.310,23.310,1.773,1.773,222.954,177.223,171.614
0.312,23.418,1.787,1.787,223.024,177.159,171.666
0.313,23.533,1.802,1.802,223.095,177.086,171.720
0.314,23.651,1.817,1.817,223.165,177.008,171.772
0.316,23.769,1.831,1.831,223.233,176.925,171.821
0.317,23.882,1.843,1.843,223.297,176.842,171.865
0.319,23.989,1.853,1.853,223.354,176.760,171.902
0.320,24.085,1.857,1.857,223.402,176.682,171.930
0.322,24.167,1.857,1.857,223.440,176.611,171.948
0.323,24.233,1.850,1.850,223.465,176.550,171.953
0.324,24.285,1.835,1.835,223.476,176.500,171.944
0.326,24.331,1.815,1.815,223.475,176.461,171.921
0.327,24.379,1.790,1.790,223.464,176.429,171.886
0.329,24.435,1.763,1.763,223.447,176.403,171.840
0.330,24.498,1.736,1.736,223.427,176.380,171.784
0.331,24.569,1.711,1.711,223.407,176.359,171.720
0.333,24.647,1.691,1.691,223.390,176.336,171.648
0.334,24.730,1.678,1.678,223.378,176.310,171.569
0.336,24.819,1.671,1.671,223.375,176.278,171.486
0.337,24.915,1.669,1.669,223.384,176.239,171.400
0.339,25.020,1.672,1.672,223.408,176.189,171.310
0.340,25.136,1.679,1.679,223.448,176.127,171.220
0.341,25.265,1.689,1.689,223.503,176.054,171.129
0.343,25.405,1.701,1.701,223.570,175.972,171.038
0.344,25.553,1.713,1.713,223.646,175.883,170.948
0.346,25.707,1.725,1.725,223.728,175.787,170.859
0.347,25.865,1.737,1.737,223.813,175.686,170.773
0.348,26.023,1.748,1.748,223.898,175.582,170.689
0.350,26.180,1.757,1.757,223.981,175.477,170.608
0.351,26.331,1.764,1.764,224.059,175.371,170.532
0.353,26.476,1.769,1.769,224.129,175.267,170.460
0.354,26.610,1.770,1.770,224.187,175.166,170.394
0.356,26.734,1.768,1.768,224.233,175.069,170.333
0.357,26.847,1.764,1.764,224.268,174.976,170.277
0.358,26.952,1.758,1.758,224.292,174.888,170.226
0.360,27.049,1.753,1.753,224.308,174.805,170.179
0.361,27.139,1.749,1.749,224.317,174.727,170.135
0.363,27.222,1.747,1.747,224.321,174.655,170.093
0.364,27.300,1.748,1.748,224.321,174.588,170.054
0.365,27.372,1.753,1.753,224.319,174.527,170.015
0.367,27.438,1.760,1.760,224.316,174.473,169.978
0.368,27.499,1.769,1.769,224.315,174.425,169.940
0.370,27.555,1.780,1.780,224.315,174.384,169.902
0.371,27.607,1.791,1.791,224.319,174.349,169.863
0.373,27.655,1.801,1.801,224.325,174.321,169.825
0.374,27.699,1.810,1.810,224.333,174.298,169.788
0.375,27.737,1.817,1.817,224.341,174.281,169.755
0.377,27.770,1.821,1.821,224.349,174.268,169.726
0.378,27.795,1.825,1.825,224.355,174.260,169.703
0.380,27.813,1.827,1.827,224.360,174.256,169.686
0.381,27.821,1.828,1.828,224.361,174.255,169.678
0.382,27.824,1.828,1.828,224.358,174.257,169.679
0.384,27.839,1.827,1.827,224.351,174.261,169.691
0.385,27.867,1.827,1.827,224.338,174.268,169.715
0.387,27.905,1.825,1.825,224.320,174.275,169.749
0.388,27.949,1.820,1.820,224.300,174.283,169.786
0.390,27.991,1.813,1.813,224.279,174.292,169.821
0.391,28.025,1.800,1.800,224.260,174.299,169.849
0.392,28.046,1.782,1.782,224.247,174.306,169.863
0.394,28.055,1.757,1.757,224.240,174.310,169.857
0.395,28.087,1.725,1.725,224.243,174.311,169.826
0.397,28.151,1.690,1.690,224.257,174.309,169.764
0.398,28.255,1.657,1.657,224.286,174.303,169.664
0.399,28.406,1.634,1.634,224.332,174.293,169.521
0.401,28.609,1.625,1.625,224.397,174.277,169.329
0.402,28.861,1.637,1.637,224.480,174.256,169.092
0.404,29.152,1.675,1.675,224.577,174.230,168.819
0.405,29.471,1.744,1.744,224.685,174.201,168.520
0.407,29.807,1.839,1.839,224.799,174.169,168.205
0.408,30.150,1.951,1.951,224.916,174.134,167.885
0.409,30.490,2.070,2.070,225.032,174.099,167.568
0.411,30.815,2.186,2.186,225.144,174.063,167.264
0.412,31.116,2.289,2.289,225.247,174.027,166.984
0.414,31.381,2.370,2.370,225.339,173.991,166.738
0.415,31.600,2.420,2.420,225.414,173.958,166.535
0.416,31.764,2.439,2.439,225.471,173.927,166.384
0.418,31.877,2.433,2.433,225.511,173.897,166.283
0.419,31.948,2.410,2.410,225.541,173.868,166.225
0.421,31.994,2.378,2.378,225.568,173.838,166.203
0.422,32.037,2.343,2.343,225.596,173.807,166.209
0.424,32.094,2.312,2.312,225.632,173.771,166.235
0.425,32.170,2.292,2.292,225.682,173.731,166.276
0.426,32.265,2.289,2.289,225.751,173.686,166.323
0.428,32.384,2.302,2.302,225.847,173.633,166.368
0.429,32.531,2.332,2.332,225.975,173.571,166.405
0.431,32.712,2.381,2.381,226.141,173.500,166.426
0.432,32.936,2.449,2.449,226.349,173.418,166.426
0.433,33.197,2.537,2.537,226.594,173.328,166.405
0.435,33.489,2.646,2.646,226.866,173.232,166.369
0.436,33.800,2.775,2.775,227.157,173.132,166.321
0.438,34.121,2.914,2.914,227.457,173.032,166.266
0.439,34.442,3.057,3.057,227.758,172.934,166.208
0.441,34.754,3.195,3.195,228.050,172.840,166.153
0.442,35.045,3.322,3.322,228.324,172.755,166.103
0.443,35.306,3.429,3.429,228.570,172.680,166.064
0.445,35.527,3.510,3.510,228.781,172.617,166.041
0.446,35.699,3.558,3.558,228.947,172.571,166.036
0.448,35.818,3.580,3.580,229.061,172.542,166.054
0.449,35.896,3.579,3.579,229.130,172.531,166.087
0.450,35.950,3.562,3.562,229.163,172.535,166.129
0.452,35.997,3.531,3.531,229.168,172.554,166.173
0.453,36.048,3.494,3.494,229.155,172.586,166.210
0.455,36.104,3.454,3.454,229.132,172.630,166.234
0.456,36.164,3.416,3.416,229.108,172.685,166.237
0.458,36.235,3.383,3.383,229.092,172.749,166.211
0.459,36.330,3.356,3.356,229.093,172.822,166.149
0.460,36.464,3.338,3.338,229.119,172.901,166.044
0.462,36.652,3.330,3.330,229.181,172.985,165.887
0.463,36.901,3.335,3.335,229.281,173.074,165.677
0.465,37.204,3.354,3.354,229.416,173.166,165.422
0.466,37.549,3.390,3.390,229.578,173.261,165.133
0.467,37.925,3.436,3.436,229.761,173.357,164.819
0.469,38.318,3.489,3.489,229.958,173.452,164.492
0.470,38.718,3.541,3.541,230.163,173.548,164.163
0.472,39.111,3.587,3.587,230.368,173.641,163.841
0.473,39.485,3.622,3.622,230.566,173.732,163.537
0.475,39.828,3.640,3.640,230.752,173.819,163.261
0.476,40.128,3.637,3.637,230.918,173.901,163.026
0.477,40.373,3.615,3.615,231.057,173.978,162.840
0.479,40.558,3.583,3.583,231.167,174.048,162.708
0.480,40.693,3.547,3.547,231.251,174.114,162.625
0.482,40.790,3.514,3.514,231.313,174.175,162.584
0.483,40.863,3.492,3.492,231.358,174.233,162.578
0.484,40.931,3.488,3.488,231.388,174.289,162.602
0.486,41.005,3.508,3.508,231.409,174.345,162.647
0.487,41.089,3.550,3.550,231.424,174.400,162.708
0.489,41.179,3.609,3.609,231.438,174.456,162.777
0.490,41.273,3.679,3.679,231.454,174.515,162.848
0.492,41.367,3.753,3.753,231.477,174.576,162.915
0.493,41.459,3.826,3.826,231.510,174.642,162.971
0.494,41.552,3.891,3.891,231.555,174.711,163.013
0.496,41.648,3.944,3.944,231.611,174.784,163.042
0.497,41.748,3.981,3.981,231.675,174.858,163.060
0.499,41.850,4.005,4.005,231.745,174.933,163.069
0.500,41.955,4.019,4.019,231.819,175.006,163.071
0.501,42.060,4.024,4.024,231.896,175.078,163.067
0.503,42.163,4.022,4.022,231.972,175.146,163.058
0.504,42.262,4.015,4.015,232.047,175.210,163.048
0.506,42.355,4.007,4.007,232.119,175.268,163.036
0.507,42.438,3.997,3.997,232.185,175.318,163.026
0.508,42.511,3.986,3.986,232.243,175.360,163.018
0.510,42.572,3.976,3.976,232.294,175.394,163.013
0.511,42.623,3.966,3.966,232.338,175.421,163.011
0.513,42.667,3.958,3.958,232.377,175.441,163.012
0.514,42.705,3.951,3.951,232.411,175.456,163.014
0.516,42.738,3.946,3.946,232.443,175.466,163.018
0.517,42.769,3.944,3.944,232.473,175.473,163.023
0.518,42.799,3.944,3.944,232.502,175.478,163.028
0.520,42.830,3.945,3.945,232.532,175.482,163.034
0.521,42.862,3.947,3.947,232.563,175.485,163.039
0.523,42.897,3.949,3.949,232.598,175.490,163.044
0.524,42.937,3.951,3.951,232.637,175.495,163.048
0.525,42.980,3.953,3.953,232.680,175.503,163.051
0.527,43.027,3.953,3.953,232.725,175.512,163.052
0.528,43.075,3.952,3.952,232.772,175.523,163.054
0.530,43.124,3.950,3.950,232.820,175.534,163.055
0.531,43.172,3.948,3.948,232.867,175.546,163.056
0.533,43.220,3.946,3.946,232.913,175.557,163.057
0.534,43.264,3.944,3.944,232.956,175.569,163.058
0.535,43.305,3.942,3.942,232.995,175.580,163.060
0.537,43.342,3.941,3.941,233.030,175.590,163.063
0.538,43.372,3.940,3.940,233.059,175.600,163.067
0.540,43.396,3.940,3.940,233.081,175.607,163.072
0.541,43.415,3.940,3.940,233.098,175.613,163.078
0.542,43.430,3.940,3.940,233.110,175.618,163.084
0.544,43.442,3.940,3.940,233.119,175.622,163.090
0.545,43.452,3.940,3.940,233.127,175.626,163.096
0.547,43.462,3.939,3.939,233.135,175.629,163.100
0.548,43.472,3.939,3.939,233.145,175.632,163.103
0.550,43.485,3.938,3.938,233.157,175.635,163.104
0.551,43.502,3.937,3.937,233.174,175.638,163.102
0.552,43.525,3.936,3.936,233.196,175.642,163.097
0.554,43.557,3.935,3.935,233.226,175.647,163.089
0.555,43.598,3.934,3.934,233.265,175.653,163.076
0.557,43.647,3.932,3.932,233.310,175.661,163.060
0.558,43.703,3.930,3.930,233.363,175.671,163.043
0.559,43.765,3.927,3.927,233.420,175.686,163.024
0.561,43.832,3.920,3.920,233.482,175.704,163.006
0.562,43.903,3.910,3.910,233.546,175.728,162.989
0.564,43.977,3.895,3.895,233.612,175.759,162.975
0.565,44.053,3.875,3.875,233.679,175.796,162.964
0.567,44.133,3.849,3.849,233.744,175.841,162.958
0.568,44.217,3.817,3.817,233.808,175.895,162.958
0.569,44.305,3.782,3.782,233.869,175.958,162.965
0.571,44.399,3.746,3.746,233.925,176.032,162.979
0.572,44.498,3.711,3.711,233.980,176.112,163.001
0.574,44.603,3.680,3.680,234.033,176.198,163.028
0.575,44.711,3.653,3.653,234.086,176.287,163.061
0.576,44.822,3.634,3.634,234.141,176.376,163.098
