"T","Distance","Radius","FreeRadius","X","Y","Z"
0.000,0.000,1.154,1.154,276.978,279.247,241.844
0.001,0.011,1.153,1.153,276.989,279.248,241.846
0.002,0.022,1.153,1.153,277.000,279.250,241.848
0.003,0.031,1.154,1.154,277.008,279.253,241.851
0.005,0.040,1.157,1.157,277.014,279.259,241.853
0.006,0.050,1.161,1.161,277.017,279.269,241.855
0.007,0.065,1.168,1.168,277.015,279.283,241.857
0.008,0.085,1.177,1.177,277.009,279.302,241.859
0.009,0.113,1.189,1.189,276.997,279.328,241.860
0.010,0.150,1.206,1.206,276.978,279.360,241.862
0.012,0.197,1.226,1.226,276.953,279.400,241.863
0.013,0.253,1.250,1.250,276.925,279.448,241.863
0.014,0.317,1.277,1.277,276.895,279.504,241.861
0.015,0.388,1.306,1.306,276.868,279.570,241.857
0.016,0.467,1.338,1.338,276.846,279.645,241.849
0.017,0.554,1.372,1.372,276.834,279.731,241.837
0.019,0.651,1.408,1.408,276.833,279.826,241.819
0.020,0.761,1.445,1.445,276.846,279.933,241.796
0.021,0.887,1.483,1.483,276.878,280.051,241.767
0.022,1.030,1.521,1.521,276.929,280.180,241.730
0.023,1.186,1.560,1.560,276.993,280.316,241.688
0.024,1.350,1.599,1.599,277.066,280.455,241.641
0.026,1.517,1.638,1.638,277.141,280.594,241.589
0.027,1.680,1.676,1.676,277.213,280.730,241.535
0.028,1.833,1.714,1.714,277.277,280.858,241.479
0.029,1.973,1.752,1.752,277.327,280.974,241.422
0.030,2.094,1.788,1.788,277.358,281.076,241.365
0.031,2.194,1.822,1.822,277.364,281.160,241.309
0.032,2.281,1.855,1.855,277.345,281.224,241.254
0.034,2.362,1.882,1.882,277.309,281.270,241.198
0.035,2.442,1.903,1.903,277.263,281.301,241.140
0.036,2.522,1.917,1.917,277.217,281.320,241.078
0.037,2.601,1.921,1.921,277.178,281.329,241.010
0.038,2.680,1.913,1.913,277.154,281.331,240.934
0.039,2.765,1.893,1.893,277.154,281.328,240.849
0.041,2.867,1.858,1.858,277.186,281.323,240.753
0.042,2.998,1.808,1.808,277.258,281.318,240.644
0.043,3.164,1.746,1.746,277.371,281.314,240.521
0.044,3.363,1.677,1.677,277.518,281.310,240.387
0.045,3.587,1.605,1.605,277.689,281.305,240.242
0.046,3.832,1.534,1.534,277.879,281.296,240.088
0.048,4.090,1.467,1.467,278.079,281.282,239.925
0.049,4.355,1.409,1.409,278.281,281.263,239.756
0.050,4.619,1.364,1.364,278.478,281.236,239.581
0.051,4.878,1.336,1.336,278.661,281.201,239.402
0.052,5.126,1.326,1.326,278.824,281.155,239.220
0.053,5.362,1.329,1.329,278.963,281.101,239.037
0.055,5.583,1.344,1.344,279.079,281.043,238.859
0.056,5.788,1.367,1.367,279.174,280.984,238.687
0.057,5.973,1.395,1.395,279.248,280.929,238.526
0.058,6.136,1.425,1.425,279.303,280.881,238.380
0.059,6.274,1.453,1.453,279.340,280.845,238.253
0.060,6.384,1.476,1.476,279.360,280.824,238.147
0.061,6.463,1.492,1.492,279.363,280.822,238.067
0.063,6.520,1.501,1.501,279.352,280.844,238.017
0.064,6.571,1.505,1.505,279.330,280.883,237.992
0.065,6.624,1.506,1.506,279.305,280.930,237.987
0.066,6.675,1.507,1.507,279.281,280.974,237.994
0.067,6.711,1.510,1.510,279.266,281.005,238.006
0.068,6.725,1.517,1.517,279.265,281.012,238.018
0.070,6.758,1.530,1.530,279.284,280.986,238.021
0.071,6.843,1.552,1.552,279.331,280.916,238.009
0.072,6.994,1.583,1.583,279.411,280.792,237.975
0.073,7.223,1.624,1.624,279.529,280.606,237.914
0.074,7.521,1.673,1.673,279.683,280.366,237.828
0.075,7.871,1.729,1.729,279.866,280.087,237.722
0.077,8.255,1.790,1.790,280.073,279.786,237.603
0.078,8.657,1.856,1.856,280.298,279.478,237.477
0.079,9.058,1.924,1.924,280.534,279.178,237.350
0.080,9.444,1.995,1.995,280.774,278.904,237.227
0.081,9.797,2.066,2.066,281.014,278.669,237.115
0.082,10.106,2.136,2.136,281.247,278.491,237.020
0.084,10.363,2.206,2.206,281.468,278.381,236.947
0.085,10.582,2.275,2.275,281.675,278.334,236.895
0.086,10.781,2.343,2.343,281.871,278.338,236.861
0.087,10.972,2.410,2.410,282.056,278.383,236.842
0.088,11.163,2.475,2.475,282.232,278.457,236.836
0.089,11.353,2.539,2.539,282.398,278.548,236.840
0.090,11.539,2.600,2.600,282.557,278.646,236.852
0.092,11.718,2.660,2.660,282.709,278.739,236.868
0.093,11.884,2.718,2.718,282.855,278.815,236.885
0.094,12.035,2.774,2.774,282.996,278.866,236.903
0.095,12.175,2.828,2.828,283.132,278.894,236.920
0.096,12.307,2.881,2.881,283.264,278.901,236.937
0.097,12.435,2.933,2.933,283.389,278.891,236.954
0.099,12.559,2.983,2.983,283.510,278.867,236.971
0.100,12.679,3.033,3.033,283.624,278.834,236.990
0.101,12.797,3.083,3.083,283.733,278.794,237.010
0.102,12.910,3.132,3.132,283.835,278.751,237.032
0.103,13.018,3.180,3.180,283.931,278.709,237.056
0.104,13.119,3.226,3.226,284.021,278.669,237.083
0.106,13.213,3.270,3.270,284.103,278.633,237.111
0.107,13.300,3.311,3.311,284.179,278.601,237.140
0.108,13.380,3.347,3.347,284.246,278.571,237.169
0.109,13.451,3.378,3.378,284.306,278.545,237.197
0.110,13.513,3.404,3.404,284.357,278.523,237.224
0.111,13.566,3.423,3.423,284.400,278.503,237.248
0.113,13.609,3.435,3.435,284.433,278.487,237.270
0.114,13.641,3.442,3.442,284.457,278.474,237.287
0.115,13.664,3.445,3.445,284.472,278.464,237.301
0.116,13.677,3.444,3.444,284.479,278.457,237.311
0.117,13.685,3.442,3.442,284.480,278.453,237.316
0.118,13.689,3.440,3.440,284.477,278.451,237.318
0.119,13.695,3.438,3.438,284.472,278.453,237.317
0.121,13.703,3.438,3.438,284.465,278.456,237.312
0.122,13.715,3.441,3.441,284.459,278.462,237.305
0.123,13.728,3.448,3.448,284.456,278.470,237.294
0.124,13.745,3.457,3.457,284.457,278.480,237.281
0.125,13.765,3.467,3.467,284.463,278.492,237.266
0.126,13.786,3.477,3.477,284.473,278.503,237.251
0.128,13.808,3.485,3.485,284.487,278.512,237.236
0.129,13.829,3.490,3.490,284.503,278.518,237.225
0.130,13.848,3.492,3.492,284.521,278.518,237.218
0.131,13.868,3.488,3.488,284.540,278.511,237.217
0.132,13.894,3.479,3.479,284.560,278.495,237.223
0.133,13.930,3.463,3.463,284.579,278.469,237.239
0.135,13.979,3.441,3.441,284.596,278.431,237.265
0.136,14.044,3.413,3.413,284.613,278.380,237.303
0.137,14.126,3.379,3.379,284.630,278.318,237.352
0.138,14.225,3.339,3.339,284.651,278.244,237.414
0.139,14.340,3.294,3.294,284.676,278.160,237.489
0.140,14.472,3.243,3.243,284.707,278.066,237.576
0.142,14.621,3.187,3.187,284.747,277.963,237.676
0.143,14.787,3.126,3.126,284.797,277.852,237.790
0.144,14.972,3.062,3.062,284.859,277.734,237.918
0.145,15.176,2.998,2.998,284.935,277.609,238.060
0.146,15.394,2.934,2.934,285.022,277.480,238.213
0.147,15.622,2.874,2.874,285.118,277.350,238.372
0.148,15.850,2.819,2.819,285.218,277.222,238.533
0.150,16.074,2.770,2.770,285.318,277.100,238.692
0.151,16.284,2.731,2.731,285.414,276.988,238.842
0.152,16.475,2.703,2.703,285.501,276.888,238.980
0.153,16.640,2.685,2.685,285.576,276.805,239.100
0.154,16.770,2.677,2.677,285.634,276.741,239.198
0.155,16.861,2.674,2.674,285.671,276.701,239.270
0.157,16.916,2.676,2.676,285.690,276.680,239.318
0.158,16.947,2.678,2.678,285.694,276.673,239.348
0.159,16.967,2.680,2.680,285.686,276.674,239.366
0.160,16.986,2.677,2.677,285.671,276.677,239.379
0.161,17.009,2.668,2.668,285.654,276.675,239.392
0.162,17.038,2.651,2.651,285.637,276.664,239.413
0.164,17.084,2.625,2.625,285.625,276.636,239.447
0.165,17.157,2.594,2.594,285.622,276.586,239.501
0.166,17.267,2.558,2.558,285.632,276.509,239.579
0.167,17.412,2.520,2.520,285.653,276.408,239.680
0.168,17.582,2.482,2.482,285.683,276.289,239.798
0.169,17.768,2.446,2.446,285.720,276.161,239.927
0.171,17.961,2.413,2.413,285.762,276.028,240.063
0.172,18.153,2.387,2.387,285.804,275.899,240.198
0.173,18.335,2.369,2.369,285.846,275.780,240.329
0.174,18.497,2.357,2.357,285.884,275.677,240.448
0.175,18.632,2.351,2.351,285.916,275.597,240.552
0.176,18.732,2.348,2.348,285.940,275.546,240.634
0.177,18.802,2.348,2.348,285.956,275.522,240.698
0.179,18.852,2.349,2.349,285.967,275.519,240.747
0.180,18.893,2.350,2.350,285.973,275.534,240.784
0.181,18.933,2.349,2.349,285.975,275.561,240.814
0.182,18.976,2.345,2.345,285.975,275.597,240.838
0.183,19.022,2.337,2.337,285.976,275.636,240.862
0.184,19.069,2.326,2.326,285.976,275.675,240.889
0.186,19.116,2.313,2.313,285.980,275.709,240.922
0.187,19.165,2.298,2.298,285.986,275.733,240.963
0.188,19.219,2.284,2.284,285.996,275.751,241.012
0.189,19.276,2.269,2.269,286.010,275.763,241.067
0.190,19.335,2.256,2.256,286.026,275.772,241.123
0.191,19.396,2.245,2.245,286.044,275.780,241.181
0.193,19.456,2.238,2.238,286.065,275.789,241.236
0.194,19.513,2.232,2.232,286.088,275.801,241.287
0.195,19.567,2.228,2.228,286.114,275.819,241.331
0.196,19.618,2.224,2.224,286.140,275.844,241.366
0.197,19.669,2.217,2.217,286.168,275.878,241.392
0.198,19.724,2.207,2.207,286.196,275.921,241.414
0.200,19.787,2.192,2.192,286.224,275.972,241.437
0.201,19.858,2.170,2.170,286.250,276.031,241.467
0.202,19.940,2.140,2.140,286.273,276.097,241.511
0.203,20.038,2.100,2.100,286.293,276.169,241.573
0.204,20.156,2.053,2.053,286.309,276.248,241.660
0.205,20.301,2.000,2.000,286.320,276.332,241.777
0.206,20.478,1.946,1.946,286.324,276.421,241.930
0.208,20.690,1.892,1.892,286.322,276.514,242.121
0.209,20.930,1.841,1.841,286.316,276.609,242.342
0.210,21.190,1.796,1.796,286.307,276.702,242.584
0.211,21.462,1.759,1.759,286.298,276.792,242.840
0.212,21.736,1.734,1.734,286.290,276.876,243.101
0.213,22.005,1.722,1.722,286.286,276.951,243.359
0.215,22.260,1.720,1.720,286.287,277.015,243.606
0.216,22.494,1.727,1.727,286.296,277.065,243.834
0.217,22.698,1.741,1.741,286.314,277.100,244.034
0.218,22.871,1.758,1.758,286.342,277.118,244.204
0.219,23.018,1.776,1.776,286.379,277.125,244.346
0.220,23.145,1.794,1.794,286.423,277.125,244.466
0.222,23.258,1.809,1.809,286.475,277.123,244.566
0.223,23.360,1.819,1.819,286.532,277.122,244.650
0.224,23.456,1.822,1.822,286.594,277.128,244.723
0.225,23.550,1.821,1.821,286.659,277.145,244.789
0.226,23.648,1.818,1.818,286.727,277.178,244.852
0.227,23.754,1.813,1.813,286.795,277.231,244.914
0.229,23.874,1.809,1.809,286.864,277.303,244.980
0.230,24.003,1.806,1.806,286.930,277.390,245.049
0.231,24.140,1.808,1.808,286.994,277.488,245.122
0.232,24.282,1.815,1.815,287.052,277.591,245.199
0.233,24.424,1.828,1.828,287.105,277.694,245.281
0.234,24.563,1.848,1.848,287.149,277.793,245.368
0.235,24.698,1.873,1.873,287.184,277.883,245.462
0.237,24.826,1.900,1.900,287.209,277.960,245.561
0.238,24.947,1.929,1.929,287.221,278.017,245.668
0.239,25.065,1.958,1.958,287.222,278.057,245.779
0.240,25.181,1.985,1.985,287.215,278.080,245.892
0.241,25.292,2.008,2.008,287.205,278.093,246.002
0.242,25.398,2.027,2.027,287.195,278.097,246.107
0.244,25.493,2.040,2.040,287.187,278.096,246.202
0.245,25.575,2.047,2.047,287.186,278.093,246.284
0.246,25.641,2.049,2.049,287.196,278.093,246.350
0.247,25.692,2.048,2.048,287.218,278.098,246.395
0.248,25.739,2.045,2.045,287.258,278.111,246.417
0.249,25.798,2.041,2.041,287.313,278.133,246.417
0.251,25.873,2.035,2.035,287.379,278.162,246.399
0.252,25.960,2.031,2.031,287.453,278.195,246.367
0.253,26.055,2.028,2.028,287.531,278.231,246.326
0.254,26.152,2.027,2.027,287.608,278.268,246.280
0.255,26.247,2.028,2.028,287.682,278.304,246.233
0.256,26.333,2.029,2.029,287.748,278.337,246.188
0.258,26.404,2.031,2.031,287.802,278.365,246.151
0.259,26.456,2.033,2.033,287.841,278.387,246.125
0.260,26.491,2.034,2.034,287.867,278.404,246.109
0.261,26.512,2.034,2.034,287.882,278.417,246.102
0.262,26.527,2.033,2.033,287.890,278.430,246.102
0.263,26.542,2.028,2.028,287.893,278.443,246.108
0.265,26.561,2.022,2.022,287.895,278.459,246.117
0.266,26.585,2.013,2.013,287.899,278.481,246.129
0.267,26.617,2.002,2.002,287.908,278.509,246.141
0.268,26.660,1.990,1.990,287.926,278.546,246.151
0.269,26.715,1.976,1.976,287.953,278.594,246.159
0.270,26.784,1.960,1.960,287.992,278.650,246.166
0.271,26.863,1.943,1.943,288.040,278.713,246.172
0.273,26.952,1.925,1.925,288.098,278.779,246.181
0.274,27.048,1.906,1.906,288.165,278.847,246.193
0.275,27.150,1.886,1.886,288.240,278.913,246.210
0.276,27.256,1.866,1.866,288.323,278.976,246.234
0.277,27.368,1.845,1.845,288.413,279.033,246.268
0.278,27.484,1.825,1.825,288.509,279.081,246.311
0.280,27.605,1.805,1.805,288.611,279.118,246.366
0.281,27.733,1.785,1.785,288.718,279.148,246.429
0.282,27.863,1.766,1.766,288.827,279.172,246.496
0.283,27.995,1.748,1.748,288.938,279.193,246.564
0.284,28.125,1.731,1.731,289.049,279.213,246.629
0.285,28.252,1.715,1.715,289.159,279.237,246.688
0.287,28.373,1.700,1.700,289.266,279.265,246.737
0.288,28.487,1.687,1.687,289.369,279.302,246.771
0.289,28.597,1.675,1.675,289.466,279.348,246.789
0.290,28.705,1.664,1.664,289.556,279.407,246.787
0.291,28.814,1.655,1.655,289.640,279.475,246.769
0.292,28.926,1.647,1.647,289.717,279.549,246.737
0.294,29.039,1.641,1.641,289.788,279.627,246.697
0.295,29.150,1.636,1.636,289.851,279.707,246.650
0.296,29.258,1.633,1.632,289.908,279.784,246.600
0.297,29.359,1.630,1.630,289.958,279.856,246.552
0.298,29.449,1.629,1.628,290.002,279.921,246.507
0.299,29.524,1.628,1.627,290.039,279.975,246.470
0.300,29.584,1.628,1.627,290.070,280.018,246.443
0.302,29.632,1.628,1.627,290.097,280.054,246.426
0.303,29.674,1.627,1.627,290.123,280.086,246.416
0.304,29.716,1.627,1.628,290.151,280.118,246.415
0.305,29.764,1.627,1.629,290.183,280.153,246.421
0.306,29.822,1.628,1.631,290.221,280.196,246.433
0.307,29.896,1.631,1.634,290.267,280.249,246.450
0.309,29.989,1.636,1.640,290.325,280.318,246.473
0.310,30.105,1.644,1.648,290.397,280.405,246.500
0.311,30.246,1.657,1.660,290.483,280.512,246.533
0.312,30.411,1.674,1.675,290.582,280.638,246.576
0.313,30.599,1.696,1.695,290.690,280.780,246.632
0.314,30.809,1.724,1.721,290.807,280.938,246.706
0.316,31.041,1.758,1.751,290.930,281.109,246.803
0.317,31.295,1.798,1.789,291.057,281.292,246.926
0.318,31.574,1.845,1.833,291.186,281.486,247.080
0.319,31.879,1.898,1.884,291.315,281.687,247.268
0.320,32.212,1.958,1.944,291.442,281.896,247.495
0.321,32.571,2.024,2.013,291.565,282.108,247.757
0.323,32.945,2.097,2.092,291.682,282.320,248.042
0.324,33.325,2.177,2.180,291.794,282.526,248.341
0.325,33.699,2.263,2.278,291.897,282.723,248.642
0.326,34.055,2.353,2.382,291.991,282.905,248.933
0.327,34.382,2.445,2.489,292.075,283.069,249.204
0.328,34.669,2.537,2.597,292.147,283.209,249.443
0.329,34.903,2.628,2.700,292.206,283.321,249.640
0.331,35.073,2.714,2.798,292.250,283.401,249.783
0.332,35.181,2.795,2.885,292.281,283.451,249.874
0.333,35.237,2.868,2.960,292.301,283.475,249.921
0.334,35.253,2.931,3.020,292.312,283.479,249.931
0.335,35.274,2.984,3.063,292.316,283.467,249.914
0.336,35.317,3.027,3.094,292.316,283.446,249.877
0.338,35.372,3.062,3.114,292.313,283.419,249.829
0.339,35.429,3.089,3.125,292.310,283.393,249.778
0.340,35.480,3.108,3.130,292.310,283.372,249.732
0.341,35.514,3.121,3.131,292.314,283.362,249.699
0.342,35.535,3.128,3.130,292.323,283.361,249.681
0.343,35.551,3.130,3.130,292.336,283.369,249.674
0.345,35.572,3.127,3.132,292.351,283.382,249.676
0.346,35.599,3.120,3.137,292.370,283.399,249.686
0.347,35.629,3.111,3.143,292.390,283.417,249.701
0.348,35.661,3.098,3.149,292.411,283.433,249.718
0.349,35.692,3.084,3.157,292.432,283.447,249.736
0.350,35.719,3.069,3.163,292.453,283.454,249.751
0.352,35.743,3.054,3.168,292.474,283.454,249.763
0.353,35.767,3.039,3.172,292.496,283.449,249.770
0.354,35.795,3.025,3.172,292.524,283.442,249.772
0.355,35.831,3.013,3.170,292.559,283.438,249.769
0.356,35.879,3.004,3.167,292.607,283.440,249.761
0.357,35.945,2.998,3.164,292.670,283.451,249.748
0.358,36.032,2.996,3.162,292.751,283.477,249.730
0.360,36.146,2.999,3.163,292.855,283.520,249.706
0.361,36.293,3.007,3.169,292.984,283.584,249.677
0.362,36.476,3.023,3.181,293.140,283.671,249.643
0.363,36.688,3.045,3.200,293.318,283.779,249.604
0.364,36.922,3.076,3.228,293.513,283.903,249.563
0.365,37.169,3.114,3.265,293.716,284.037,249.521
0.367,37.421,3.157,3.308,293.922,284.176,249.479
0.368,37.670,3.206,3.356,294.124,284.316,249.439
0.369,37.907,3.257,3.407,294.315,284.452,249.402
0.370,38.125,3.310,3.460,294.489,284.579,249.370
0.371,38.314,3.362,3.511,294.639,284.691,249.344
0.372,38.469,3.413,3.560,294.760,284.786,249.326
0.374,38.595,3.460,3.604,294.857,284.865,249.312
0.375,38.696,3.502,3.643,294.932,284.932,249.302
0.376,38.778,3.541,3.675,294.990,284.989,249.294
0.377,38.847,3.576,3.703,295.036,285.039,249.286
0.378,38.908,3.608,3.728,295.074,285.086,249.274
0.379,38.967,3.639,3.750,295.109,285.131,249.259
0.381,39.029,3.670,3.771,295.144,285.179,249.237
0.382,39.102,3.701,3.791,295.184,285.231,249.206
0.383,39.187,3.734,3.813,295.231,285.289,249.167
0.384,39.282,3.769,3.836,295.286,285.353,249.122
0.385,39.383,3.808,3.863,295.348,285.418,249.075
0.386,39.488,3.848,3.891,295.414,285.483,249.028
0.387,39.592,3.888,3.920,295.485,285.547,248.986
0.389,39.693,3.927,3.949,295.560,285.606,248.952
0.390,39.789,3.964,3.977,295.637,285.659,248.930
0.391,39.879,3.998,4.003,295.715,285.702,248.922
0.392,39.965,4.026,4.027,295.794,285.735,248.933
0.393,40.051,4.047,4.047,295.872,285.756,248.962
0.394,40.141,4.061,4.062,295.949,285.767,249.007
0.396,40.235,4.066,4.072,296.023,285.770,249.064
0.397,40.330,4.065,4.078,296.094,285.766,249.128
0.398,40.425,4.059,4.080,296.159,285.756,249.197
0.399,40.516,4.050,4.079,296.218,285.744,249.265
0.400,40.599,4.039,4.077,296.270,285.730,249.328
0.401,40.671,4.027,4.073,296.313,285.717,249.384
0.403,40.728,4.017,4.069,296.347,285.706,249.428
0.404,40.767,4.010,4.065,296.371,285.698,249.459
0.405,40.793,4.008,4.061,296.387,285.692,249.478
0.406,40.805,4.009,4.059,296.395,285.689,249.486
0.407,40.808,4.014,4.057,296.398,285.689,249.486
0.408,40.815,4.021,4.056,296.396,285.690,249.479
0.410,40.829,4.030,4.056,296.391,285.693,249.467
0.411,40.847,4.039,4.056,296.383,285.698,249.451
0.412,40.867,4.047,4.056,296.375,285.704,249.434
0.413,40.888,4.053,4.057,296.367,285.711,249.416
0.414,40.908,4.057,4.057,296.360,285.718,249.399
0.415,40.925,4.058,4.057,296.354,285.725,249.385
0.416,40.937,4.055,4.057,296.351,285.730,249.374
0.418,40.943,4.050,4.057,296.351,285.733,249.369
0.419,40.947,4.042,4.055,296.355,285.734,249.370
0.420,40.958,4.033,4.053,296.362,285.730,249.378
0.421,40.981,4.023,4.049,296.373,285.721,249.396
0.422,41.017,4.012,4.044,296.390,285.707,249.424
0.423,41.067,4.002,4.037,296.412,285.687,249.464
0.425,41.130,3.991,4.029,296.442,285.661,249.514
0.426,41.205,3.982,4.019,296.480,285.634,249.571
0.427,41.289,3.972,4.007,296.531,285.608,249.634
0.428,41.382,3.964,3.994,296.595,285.587,249.698
0.429,41.485,3.955,3.980,296.675,285.573,249.761
0.430,41.600,3.947,3.965,296.774,285.570,249.820
0.432,41.731,3.938,3.951,296.893,285.581,249.873
0.433,41.881,3.930,3.936,297.035,285.608,249.917
0.434,42.057,3.920,3.922,297.201,285.655,249.949
0.435,42.255,3.911,3.909,297.388,285.715,249.972
0.436,42.470,3.901,3.897,297.592,285.781,249.992
0.437,42.695,3.892,3.886,297.806,285.845,250.014
0.439,42.923,3.884,3.878,298.027,285.896,250.043
0.440,43.150,3.877,3.872,298.247,285.928,250.084
0.441,43.374,3.874,3.870,298.463,285.931,250.143
0.442,43.598,3.874,3.872,298.669,285.896,250.226
0.443,43.833,3.879,3.878,298.860,285.816,250.337
0.444,44.092,3.888,3.888,299.031,285.684,250.480
0.445,44.382,3.903,3.904,299.184,285.506,250.651
0.447,44.699,3.924,3.925,299.321,285.294,250.842
0.448,45.033,3.948,3.950,299.447,285.060,251.044
0.449,45.375,3.977,3.978,299.565,284.813,251.249
0.450,45.713,4.008,4.009,299.678,284.565,251.451
0.451,46.036,4.041,4.042,299.788,284.329,251.640
0.452,46.331,4.077,4.077,299.900,284.114,251.809
0.454,46.589,4.113,4.113,300.017,283.932,251.949
0.455,46.804,4.149,4.149,300.141,283.792,252.056
0.456,46.984,4.184,4.184,300.270,283.691,252.132
0.457,47.139,4.219,4.218,300.400,283.623,252.180
0.458,47.275,4.251,4.251,300.527,283.583,252.206
0.459,47.399,4.282,4.281,300.649,283.564,252.213
0.461,47.512,4.309,4.309,300.762,283.562,252.208
0.462,47.614,4.333,4.332,300.863,283.570,252.194
0.463,47.701,4.352,4.352,300.948,283.582,252.176
0.464,47.770,4.367,4.367,301.013,283.594,252.159
0.465,47.817,4.376,4.376,301.057,283.600,252.146
0.466,47.844,4.381,4.381,301.083,283.600,252.137
0.468,47.858,4.381,4.381,301.095,283.594,252.133
0.469,47.870,4.379,4.379,301.097,283.583,252.132
0.470,47.889,4.375,4.375,301.092,283.565,252.136
0.471,47.915,4.370,4.370,301.084,283.541,252.144
0.472,47.947,4.367,4.367,301.077,283.512,252.155
