"T","Distance","Radius","FreeRadius","X","Y","Z"
0.000,0.000,1.154,1.154,276.978,279.247,241.844
0.001,0.007,1.161,1.161,276.986,279.247,241.846
0.003,0.014,1.168,1.168,276.992,279.248,241.847
0.004,0.021,1.175,1.175,276.999,279.249,241.849
0.006,0.027,1.181,1.181,277.004,279.252,241.851
0.007,0.033,1.186,1.186,277.008,279.256,241.852
0.008,0.040,1.189,1.189,277.010,279.263,241.854
0.010,0.049,1.191,1.191,277.011,279.272,241.855
0.011,0.061,1.191,1.191,277.010,279.283,241.857
0.013,0.077,1.189,1.189,277.006,279.298,241.858
0.014,0.097,1.188,1.188,276.999,279.317,241.860
0.016,0.121,1.187,1.187,276.989,279.340,241.861
0.017,0.152,1.189,1.189,276.975,279.367,241.862
0.018,0.187,1.193,1.193,276.959,279.398,241.863
0.020,0.228,1.201,1.201,276.940,279.435,241.864
0.021,0.274,1.213,1.213,276.921,279.477,241.863
0.023,0.325,1.230,1.230,276.902,279.523,241.861
0.024,0.380,1.252,1.252,276.884,279.575,241.858
0.025,0.440,1.276,1.276,276.868,279.632,241.852
0.027,0.504,1.304,1.304,276.856,279.695,241.844
0.028,0.573,1.334,1.334,276.848,279.763,241.833
0.030,0.648,1.367,1.367,276.847,279.837,241.819
0.031,0.730,1.400,1.400,276.852,279.916,241.802
0.032,0.819,1.434,1.434,276.865,280.001,241.780
0.034,0.916,1.469,1.469,276.887,280.093,241.754
0.035,1.021,1.506,1.506,276.917,280.189,241.725
0.037,1.133,1.543,1.543,276.954,280.289,241.691
0.038,1.249,1.582,1.582,276.997,280.391,241.655
0.039,1.369,1.622,1.622,277.044,280.494,241.617
0.041,1.491,1.663,1.663,277.093,280.598,241.576
0.042,1.612,1.705,1.705,277.144,280.700,241.534
0.044,1.731,1.745,1.745,277.195,280.799,241.492
0.045,1.847,1.782,1.782,277.244,280.894,241.449
0.047,1.957,1.814,1.814,277.291,280.984,241.406
0.048,2.060,1.839,1.839,277.333,281.068,241.363
0.049,2.153,1.855,1.855,277.370,281.143,241.322
0.051,2.236,1.859,1.859,277.399,281.210,241.282
0.052,2.310,1.852,1.852,277.422,281.267,241.243
0.054,2.374,1.836,1.836,277.437,281.316,241.203
0.055,2.431,1.814,1.814,277.444,281.354,241.161
0.056,2.484,1.790,1.790,277.443,281.383,241.117
0.058,2.536,1.765,1.765,277.434,281.402,241.069
0.059,2.593,1.744,1.744,277.416,281.411,241.017
0.061,2.657,1.729,1.729,277.389,281.409,240.958
0.062,2.732,1.723,1.723,277.353,281.397,240.893
0.063,2.821,1.724,1.724,277.307,281.374,240.820
0.065,2.926,1.731,1.731,277.252,281.341,240.739
0.066,3.047,1.741,1.741,277.186,281.296,240.647
0.068,3.185,1.753,1.753,277.110,281.241,240.546
0.069,3.334,1.764,1.764,277.028,281.178,240.438
0.071,3.493,1.774,1.774,276.940,281.109,240.326
0.072,3.657,1.779,1.779,276.849,281.035,240.211
0.073,3.823,1.781,1.781,276.756,280.959,240.096
0.075,3.987,1.778,1.778,276.664,280.883,239.984
0.076,4.146,1.773,1.773,276.575,280.808,239.876
0.078,4.296,1.764,1.764,276.490,280.736,239.775
0.079,4.434,1.752,1.752,276.412,280.669,239.683
0.080,4.556,1.737,1.737,276.342,280.610,239.603
0.082,4.658,1.721,1.721,276.283,280.560,239.536
0.083,4.738,1.703,1.703,276.236,280.521,239.485
0.085,4.796,1.685,1.685,276.201,280.492,239.449
0.086,4.835,1.667,1.667,276.176,280.473,239.425
0.087,4.858,1.651,1.651,276.161,280.461,239.413
0.089,4.867,1.638,1.638,276.154,280.455,239.410
0.090,4.872,1.629,1.629,276.154,280.456,239.415
0.092,4.885,1.625,1.625,276.160,280.460,239.426
0.093,4.905,1.625,1.625,276.171,280.468,239.441
0.094,4.929,1.630,1.630,276.185,280.477,239.458
0.096,4.955,1.638,1.638,276.202,280.487,239.475
0.097,4.981,1.647,1.647,276.220,280.496,239.491
0.099,5.005,1.658,1.658,276.237,280.504,239.505
0.100,5.024,1.669,1.669,276.254,280.509,239.513
0.102,5.040,1.679,1.679,276.269,280.511,239.518
0.103,5.052,1.687,1.687,276.282,280.510,239.517
0.104,5.064,1.694,1.694,276.291,280.505,239.511
0.106,5.078,1.698,1.698,276.295,280.498,239.500
0.107,5.098,1.699,1.699,276.295,280.486,239.484
0.109,5.126,1.697,1.697,276.288,280.471,239.461
0.110,5.163,1.691,1.691,276.275,280.452,239.433
0.111,5.209,1.681,1.681,276.254,280.429,239.399
0.113,5.266,1.668,1.668,276.224,280.401,239.358
0.114,5.335,1.651,1.651,276.185,280.369,239.311
0.116,5.417,1.632,1.632,276.137,280.333,239.256
0.117,5.509,1.612,1.612,276.079,280.292,239.197
0.118,5.610,1.591,1.591,276.014,280.249,239.133
0.120,5.716,1.571,1.571,275.944,280.205,239.067
0.121,5.825,1.552,1.552,275.870,280.161,239.000
0.123,5.933,1.536,1.536,275.795,280.118,238.935
0.124,6.038,1.522,1.522,275.720,280.078,238.874
0.126,6.136,1.510,1.510,275.648,280.042,238.817
0.127,6.226,1.501,1.501,275.581,280.012,238.767
0.128,6.304,1.494,1.494,275.519,279.988,238.725
0.130,6.368,1.489,1.489,275.466,279.972,238.694
0.131,6.415,1.487,1.487,275.422,279.966,238.675
0.133,6.448,1.487,1.487,275.391,279.969,238.669
0.134,6.473,1.488,1.488,275.369,279.981,238.673
0.135,6.496,1.490,1.490,275.355,279.997,238.683
0.137,6.519,1.491,1.491,275.348,280.014,238.695
0.138,6.539,1.489,1.489,275.344,280.031,238.706
0.140,6.553,1.484,1.484,275.343,280.043,238.712
0.141,6.559,1.474,1.474,275.342,280.049,238.708
0.142,6.577,1.459,1.459,275.339,280.044,238.692
0.144,6.615,1.440,1.440,275.332,280.027,238.659
0.145,6.679,1.418,1.418,275.320,279.993,238.605
0.147,6.775,1.398,1.398,275.300,279.940,238.527
0.148,6.908,1.380,1.380,275.271,279.866,238.421
0.150,7.078,1.368,1.368,275.231,279.770,238.287
0.151,7.277,1.364,1.364,275.182,279.656,238.131
0.152,7.498,1.370,1.370,275.125,279.528,237.960
0.154,7.733,1.385,1.385,275.060,279.391,237.780
0.155,7.975,1.407,1.407,274.990,279.248,237.598
0.157,8.217,1.431,1.431,274.915,279.104,237.419
0.158,8.452,1.455,1.455,274.836,278.962,237.249
0.159,8.671,1.475,1.475,274.754,278.828,237.096
0.161,8.870,1.488,1.488,274.671,278.704,236.966
0.162,9.040,1.491,1.491,274.587,278.596,236.864
0.164,9.179,1.482,1.482,274.504,278.506,236.797
0.165,9.288,1.465,1.465,274.423,278.440,236.772
0.166,9.380,1.439,1.439,274.343,278.396,236.785
0.168,9.474,1.409,1.409,274.264,278.371,236.832
0.169,9.583,1.376,1.376,274.187,278.364,236.907
0.171,9.708,1.341,1.341,274.111,278.371,237.006
0.172,9.850,1.308,1.308,274.035,278.391,237.124
0.173,10.004,1.278,1.278,273.959,278.419,237.255
0.175,10.166,1.249,1.249,273.883,278.455,237.394
0.176,10.332,1.223,1.223,273.807,278.495,237.536
0.178,10.497,1.199,1.199,273.730,278.536,237.676
0.179,10.656,1.177,1.177,273.652,278.577,237.809
0.181,10.805,1.156,1.156,273.573,278.614,237.929
0.182,10.941,1.136,1.136,273.492,278.646,238.034
0.183,11.065,1.118,1.118,273.410,278.673,238.123
0.185,11.178,1.102,1.102,273.328,278.695,238.198
0.186,11.282,1.088,1.089,273.247,278.714,238.260
0.188,11.379,1.079,1.079,273.166,278.729,238.311
0.189,11.468,1.075,1.075,273.087,278.741,238.352
0.190,11.552,1.077,1.078,273.011,278.751,238.384
0.192,11.631,1.087,1.087,272.937,278.760,238.408
0.193,11.704,1.104,1.103,272.866,278.767,238.426
0.195,11.772,1.127,1.127,272.799,278.774,238.439
0.196,11.835,1.155,1.154,272.737,278.781,238.448
0.197,11.893,1.186,1.185,272.680,278.788,238.454
0.199,11.945,1.217,1.216,272.629,278.796,238.459
0.200,11.994,1.247,1.246,272.581,278.805,238.462
0.202,12.038,1.273,1.273,272.538,278.814,238.465
0.203,12.080,1.295,1.295,272.497,278.824,238.467
0.205,12.120,1.311,1.313,272.459,278.834,238.470
0.206,12.159,1.322,1.325,272.422,278.845,238.473
0.207,12.196,1.329,1.333,272.386,278.856,238.477
0.209,12.234,1.332,1.336,272.350,278.868,238.482
0.210,12.273,1.332,1.335,272.314,278.880,238.489
0.212,12.314,1.329,1.330,272.276,278.891,238.498
0.213,12.357,1.323,1.321,272.236,278.903,238.510
0.214,12.403,1.315,1.309,272.194,278.915,238.524
0.216,12.453,1.306,1.295,272.148,278.927,238.540
0.217,12.506,1.294,1.280,272.099,278.940,238.555
0.219,12.562,1.281,1.266,272.046,278.954,238.567
0.220,12.622,1.266,1.253,271.988,278.969,238.574
0.221,12.687,1.250,1.244,271.925,278.985,238.573
0.223,12.758,1.232,1.238,271.857,279.004,238.563
0.224,12.838,1.214,1.238,271.784,279.025,238.541
0.226,12.929,1.197,1.241,271.704,279.049,238.506
0.227,13.033,1.183,1.250,271.617,279.076,238.455
0.228,13.153,1.172,1.262,271.523,279.107,238.387
0.230,13.292,1.167,1.278,271.422,279.141,238.298
0.231,13.450,1.169,1.298,271.314,279.179,238.189
0.233,13.624,1.179,1.321,271.200,279.220,238.063
0.234,13.811,1.198,1.348,271.083,279.264,237.924
0.236,14.006,1.224,1.375,270.964,279.309,237.776
0.237,14.206,1.254,1.403,270.846,279.355,237.623
0.238,14.405,1.287,1.429,270.729,279.401,237.467
0.240,14.601,1.320,1.453,270.617,279.447,237.314
0.241,14.788,1.352,1.472,270.510,279.492,237.166
0.243,14.964,1.380,1.485,270.412,279.534,237.028
0.244,15.122,1.403,1.491,270.323,279.574,236.903
0.245,15.260,1.421,1.492,270.245,279.611,236.794
0.247,15.374,1.436,1.490,270.181,279.643,236.706
0.248,15.463,1.448,1.485,270.130,279.671,236.639
0.250,15.531,1.458,1.480,270.091,279.696,236.590
0.251,15.580,1.467,1.477,270.062,279.717,236.556
0.252,15.612,1.476,1.476,270.044,279.735,236.536
0.254,15.633,1.485,1.480,270.034,279.750,236.527
0.255,15.646,1.495,1.487,270.031,279.764,236.528
0.257,15.660,1.505,1.496,270.034,279.775,236.535
0.258,15.677,1.513,1.505,270.041,279.785,236.546
0.260,15.697,1.521,1.515,270.053,279.794,236.560
0.261,15.718,1.525,1.522,270.066,279.802,236.573
0.262,15.738,1.527,1.527,270.081,279.810,236.584
0.264,15.756,1.526,1.527,270.096,279.817,236.591
0.265,15.772,1.523,1.524,270.110,279.825,236.594
0.267,15.786,1.517,1.519,270.123,279.831,236.594
0.268,15.798,1.512,1.514,270.133,279.837,236.592
0.269,15.808,1.508,1.509,270.141,279.842,236.588
0.271,15.815,1.506,1.506,270.146,279.844,236.584
0.272,15.820,1.508,1.508,270.146,279.845,236.580
0.274,15.825,1.514,1.514,270.142,279.843,236.576
0.275,15.836,1.524,1.525,270.132,279.838,236.574
0.276,15.854,1.536,1.539,270.117,279.831,236.575
0.278,15.879,1.549,1.554,270.094,279.819,236.579
0.279,15.913,1.560,1.568,270.065,279.804,236.586
0.281,15.956,1.568,1.580,270.028,279.786,236.598
0.282,16.006,1.571,1.588,269.985,279.765,236.614
0.283,16.061,1.567,1.589,269.938,279.743,236.632
0.285,16.119,1.557,1.585,269.888,279.721,236.652
0.286,16.179,1.541,1.577,269.836,279.700,236.674
0.288,16.239,1.521,1.567,269.784,279.681,236.697
0.289,16.296,1.498,1.556,269.734,279.666,236.719
0.291,16.350,1.476,1.548,269.685,279.656,236.741
0.292,16.400,1.453,1.544,269.641,279.652,236.762
0.293,16.443,1.434,1.545,269.602,279.654,236.781
0.295,16.481,1.417,1.553,269.570,279.665,236.798
0.296,16.516,1.403,1.564,269.545,279.686,236.811
0.298,16.551,1.391,1.576,269.526,279.714,236.821
0.299,16.588,1.382,1.585,269.511,279.747,236.828
0.300,16.628,1.373,1.589,269.497,279.784,236.833
0.302,16.669,1.365,1.586,269.481,279.821,236.836
0.303,16.710,1.357,1.571,269.460,279.857,236.837
0.305,16.753,1.349,1.543,269.432,279.889,236.837
0.306,16.799,1.340,1.506,269.394,279.915,236.837
0.307,16.853,1.331,1.462,269.342,279.932,236.836
0.309,16.920,1.321,1.415,269.276,279.938,236.835
0.310,17.006,1.310,1.367,269.190,279.931,236.835
0.312,17.114,1.297,1.322,269.084,279.908,236.835
0.313,17.248,1.283,1.283,268.956,279.868,236.836
0.315,17.404,1.267,1.252,268.810,279.814,236.838
0.316,17.577,1.250,1.229,268.650,279.750,236.842
0.317,17.762,1.233,1.213,268.480,279.678,236.846
0.319,17.953,1.217,1.203,268.304,279.602,236.851
0.320,18.146,1.202,1.198,268.127,279.524,236.857
0.322,18.336,1.190,1.196,267.953,279.448,236.863
0.323,18.517,1.180,1.197,267.787,279.378,236.870
0.324,18.684,1.175,1.200,267.632,279.316,236.878
0.326,18.832,1.173,1.204,267.493,279.266,236.886
0.327,18.956,1.175,1.209,267.374,279.230,236.894
0.329,19.053,1.179,1.214,267.279,279.213,236.903
0.330,19.124,1.186,1.220,267.209,279.212,236.912
0.331,19.175,1.195,1.225,267.160,279.225,236.920
0.333,19.214,1.205,1.230,267.129,279.246,236.926
0.334,19.245,1.216,1.233,267.112,279.273,236.929
0.336,19.273,1.227,1.236,267.106,279.300,236.930
0.337,19.297,1.237,1.238,267.108,279.324,236.926
0.339,19.316,1.245,1.239,267.114,279.340,236.918
0.340,19.333,1.249,1.239,267.122,279.344,236.904
0.341,19.356,1.249,1.239,267.127,279.333,236.883
0.343,19.398,1.242,1.238,267.126,279.301,236.856
0.344,19.465,1.229,1.236,267.117,279.246,236.821
0.346,19.561,1.210,1.234,267.095,279.163,236.777
0.347,19.684,1.187,1.233,267.062,279.055,236.726
0.348,19.832,1.165,1.235,267.020,278.927,236.668
0.350,19.998,1.146,1.239,266.970,278.780,236.605
0.351,20.180,1.133,1.247,266.914,278.621,236.537
0.353,20.373,1.130,1.259,266.854,278.452,236.467
0.354,20.572,1.139,1.278,266.790,278.278,236.395
0.355,20.773,1.162,1.302,266.726,278.101,236.322
0.357,20.972,1.196,1.331,266.662,277.927,236.250
0.358,21.165,1.239,1.364,266.601,277.759,236.180
0.360,21.346,1.289,1.400,266.544,277.601,236.112
0.361,21.512,1.344,1.438,266.492,277.457,236.048
0.362,21.660,1.401,1.476,266.447,277.329,235.989
0.364,21.792,1.458,1.514,266.407,277.215,235.936
0.365,21.909,1.512,1.551,266.371,277.114,235.889
0.367,22.012,1.564,1.586,266.337,277.025,235.849
0.368,22.103,1.609,1.618,266.306,276.946,235.817
0.370,22.184,1.648,1.647,266.275,276.875,235.793
0.371,22.257,1.679,1.671,266.243,276.811,235.777
0.372,22.325,1.699,1.691,266.208,276.753,235.771
0.374,22.391,1.708,1.706,266.171,276.698,235.775
0.375,22.460,1.704,1.715,266.129,276.646,235.790
0.377,22.534,1.690,1.719,266.082,276.595,235.816
0.378,22.618,1.669,1.720,266.027,276.543,235.853
0.379,22.713,1.643,1.717,265.966,276.490,235.902
0.381,22.818,1.615,1.713,265.897,276.436,235.960
0.382,22.932,1.589,1.709,265.821,276.381,236.025
0.384,23.055,1.566,1.705,265.739,276.324,236.096
0.385,23.185,1.550,1.702,265.651,276.266,236.171
0.386,23.321,1.541,1.701,265.556,276.207,236.249
0.388,23.462,1.536,1.700,265.455,276.147,236.327
0.389,23.607,1.537,1.699,265.348,276.086,236.405
0.391,23.756,1.541,1.697,265.235,276.024,236.479
0.392,23.907,1.549,1.693,265.117,275.960,236.549
0.394,24.061,1.559,1.686,264.994,275.895,236.613
0.395,24.215,1.569,1.676,264.865,275.830,236.669
0.396,24.369,1.581,1.665,264.734,275.765,236.716
0.398,24.521,1.594,1.653,264.601,275.703,236.754
0.399,24.667,1.608,1.644,264.468,275.646,236.781
0.401,24.808,1.623,1.640,264.338,275.595,236.796
0.402,24.941,1.639,1.643,264.212,275.553,236.798
0.403,25.066,1.655,1.654,264.092,275.520,236.787
0.405,25.183,1.673,1.677,263.979,275.500,236.761
0.406,25.295,1.692,1.711,263.876,275.494,236.719
0.408,25.403,1.712,1.753,263.785,275.504,236.662
0.409,25.515,1.734,1.802,263.706,275.532,236.586
0.410,25.638,1.759,1.853,263.643,275.579,236.493
0.412,25.775,1.787,1.906,263.594,275.644,236.382
0.413,25.925,1.819,1.957,263.558,275.722,236.259
0.415,26.084,1.854,2.003,263.531,275.807,236.128
0.416,26.246,1.892,2.043,263.510,275.893,235.993
0.417,26.404,1.932,2.077,263.493,275.975,235.858
0.419,26.553,1.971,2.104,263.477,276.047,235.729
0.420,26.686,2.006,2.122,263.459,276.103,235.609
0.422,26.800,2.035,2.132,263.436,276.138,235.504
0.423,26.893,2.057,2.134,263.406,276.145,235.416
0.425,26.973,2.069,2.125,263.365,276.120,235.352
0.426,27.064,2.070,2.108,263.310,276.057,235.315
0.427,27.192,2.064,2.086,263.241,275.950,235.309
0.429,27.361,2.055,2.064,263.157,275.805,235.332
0.430,27.568,2.045,2.045,263.062,275.628,235.381
0.432,27.804,2.038,2.033,262.959,275.428,235.452
0.433,28.060,2.039,2.034,262.851,275.213,235.542
0.434,28.330,2.051,2.051,262.741,274.990,235.645
0.436,28.602,2.075,2.087,262.633,274.767,235.759
0.437,28.870,2.110,2.137,262.528,274.552,235.880
0.439,29.123,2.150,2.194,262.431,274.353,236.003
0.440,29.354,2.191,2.254,262.345,274.178,236.125
0.441,29.553,2.229,2.310,262.271,274.035,236.243
0.443,29.715,2.261,2.356,262.215,273.931,236.352
0.444,29.836,2.280,2.386,262.176,273.869,236.449
0.446,29.926,2.285,2.396,262.153,273.845,236.533
0.447,29.995,2.278,2.387,262.143,273.849,236.601
0.449,30.052,2.261,2.364,262.144,273.873,236.652
0.450,30.102,2.238,2.332,262.153,273.911,236.684
0.451,30.149,2.213,2.295,262.167,273.955,236.697
0.453,30.195,2.191,2.258,262.184,273.995,236.686
0.454,30.243,2.173,2.226,262.201,274.026,236.653
0.456,30.305,2.165,2.202,262.215,274.038,236.594
0.457,30.392,2.167,2.190,262.224,274.024,236.508
0.458,30.517,2.179,2.190,262.225,273.976,236.393
0.460,30.687,2.204,2.205,262.215,273.887,236.248
0.461,30.905,2.240,2.235,262.195,273.756,236.075
0.463,31.162,2.289,2.282,262.165,273.592,235.880
0.464,31.449,2.351,2.348,262.127,273.401,235.668
0.465,31.759,2.427,2.433,262.084,273.189,235.446
0.467,32.082,2.513,2.535,262.035,272.965,235.219
0.468,32.409,2.605,2.644,261.984,272.735,234.992
0.470,32.731,2.696,2.755,261.931,272.507,234.771
0.471,33.039,2.782,2.858,261.878,272.286,234.563
0.472,33.324,2.857,2.947,261.826,272.081,234.372
0.474,33.576,2.916,3.013,261.778,271.899,234.205
0.475,33.786,2.953,3.049,261.734,271.747,234.066
0.477,33.948,2.967,3.054,261.697,271.630,233.962
0.478,34.063,2.963,3.034,261.665,271.546,233.889
0.480,34.137,2.946,2.999,261.640,271.492,233.844
0.481,34.177,2.922,2.955,261.620,271.465,233.823
0.482,34.191,2.894,2.911,261.607,271.460,233.823
0.484,34.214,2.869,2.873,261.598,271.474,233.840
0.485,34.256,2.851,2.851,261.595,271.502,233.869
0.487,34.311,2.844,2.848,261.598,271.542,233.908
0.488,34.376,2.845,2.861,261.605,271.589,233.952
0.489,34.445,2.854,2.885,261.617,271.640,233.998
0.491,34.514,2.867,2.918,261.634,271.690,234.042
0.492,34.578,2.883,2.955,261.655,271.736,234.080
0.494,34.634,2.900,2.992,261.680,271.776,234.110
0.495,34.681,2.916,3.025,261.706,271.809,234.132
0.496,34.720,2.929,3.052,261.731,271.834,234.147
0.498,34.749,2.939,3.070,261.753,271.852,234.156
0.499,34.768,2.946,3.081,261.770,271.860,234.159
0.501,34.777,2.949,3.084,261.778,271.860,234.156
0.502,34.789,2.948,3.079,261.777,271.849,234.148
0.504,34.817,2.942,3.066,261.763,271.829,234.136
0.505,34.862,2.932,3.044,261.734,271.799,234.120
0.506,34.926,2.917,3.015,261.688,271.758,234.101
0.508,35.013,2.897,2.979,261.622,271.705,234.079
0.509,35.124,2.875,2.940,261.536,271.640,234.055
0.511,35.258,2.850,2.900,261.428,271.565,234.030
0.512,35.413,2.825,2.863,261.300,271.482,234.005
0.513,35.586,2.799,2.831,261.154,271.392,233.980
0.515,35.776,2.774,2.806,260.991,271.297,233.957
0.516,35.979,2.752,2.791,260.813,271.200,233.937
0.518,36.195,2.733,2.785,260.622,271.102,233.921
0.519,36.419,2.717,2.788,260.419,271.006,233.910
0.520,36.652,2.707,2.797,260.206,270.914,233.905
0.522,36.891,2.702,2.810,259.983,270.827,233.907
0.523,37.133,2.703,2.827,259.754,270.748,233.916
0.525,37.379,2.713,2.844,259.519,270.678,233.935
0.526,37.627,2.730,2.862,259.280,270.620,233.964
0.528,37.874,2.755,2.878,259.041,270.570,234.001
0.529,38.120,2.787,2.895,258.803,270.527,234.045
0.530,38.362,2.824,2.913,258.569,270.487,234.094
0.532,38.597,2.865,2.931,258.343,270.449,234.146
0.533,38.823,2.909,2.952,258.127,270.410,234.201
0.535,39.037,2.954,2.976,257.925,270.367,234.256
0.536,39.238,2.999,3.002,257.738,270.318,234.310
0.537,39.423,3.043,3.033,257.570,270.260,234.362
0.539,39.591,3.087,3.067,257.424,270.191,234.409
0.540,39.744,3.128,3.104,257.303,270.108,234.450
0.542,39.885,3.168,3.144,257.209,270.008,234.484
0.543,40.021,3.206,3.187,257.142,269.893,234.511
0.544,40.157,3.242,3.232,257.099,269.765,234.530
0.546,40.296,3.275,3.279,257.077,269.629,234.545
0.547,40.438,3.305,3.328,257.072,269.487,234.555
0.549,40.582,3.332,3.376,257.082,269.343,234.561
0.550,40.725,3.355,3.420,257.102,269.202,234.566
0.551,40.863,3.374,3.459,257.130,269.067,234.570
0.553,40.994,3.388,3.489,257.161,268.940,234.575
0.554,41.112,3.398,3.508,257.194,268.827,234.580
0.556,41.213,3.402,3.514,257.223,268.730,234.589
0.557,41.294,3.402,3.506,257.247,268.654,234.601
0.559,41.352,3.396,3.487,257.261,268.601,234.619
0.560,41.390,3.388,3.461,257.265,268.569,234.641
0.561,41.422,3.378,3.431,257.258,268.557,234.669
0.563,41.460,3.368,3.403,257.239,268.559,234.703
0.564,41.512,3.358,3.379,257.208,268.573,234.742
0.566,41.578,3.349,3.365,257.165,268.595,234.786
0.567,41.659,3.344,3.362,257.108,268.623,234.836
0.568,41.754,3.340,3.370,257.036,268.652,234.892
0.570,41.864,3.336,3.386,256.951,268.680,234.954
0.571,41.987,3.330,3.409,256.850,268.702,235.022
0.573,42.126,3.322,3.436,256.733,268.717,235.095
0.574,42.281,3.308,3.465,256.600,268.719,235.175
0.575,42.453,3.289,3.494,256.451,268.708,235.260
