"T","Distance","Radius","FreeRadius","X","Y","Z"
0.000,0.000,1.154,1.154,276.978,279.247,241.844
0.002,0.010,1.163,1.163,276.988,279.247,241.846
0.004,0.019,1.172,1.172,276.997,279.249,241.848
0.006,0.028,1.180,1.180,277.004,279.252,241.851
0.008,0.037,1.186,1.186,277.009,279.259,241.853
0.010,0.048,1.190,1.190,277.011,279.270,241.855
0.012,0.064,1.191,1.191,277.009,279.286,241.857
0.014,0.088,1.192,1.192,277.002,279.309,241.859
0.016,0.120,1.193,1.193,276.989,279.339,241.861
0.018,0.163,1.196,1.196,276.970,279.377,241.863
0.020,0.216,1.203,1.203,276.946,279.424,241.864
0.022,0.278,1.215,1.215,276.920,279.480,241.863
0.024,0.349,1.233,1.233,276.894,279.546,241.860
0.026,0.428,1.258,1.258,276.871,279.621,241.853
0.028,0.516,1.292,1.292,276.854,279.707,241.842
0.030,0.614,1.334,1.334,276.847,279.803,241.826
0.033,0.723,1.385,1.385,276.851,279.910,241.803
0.035,0.846,1.443,1.443,276.870,280.028,241.773
0.037,0.984,1.504,1.504,276.906,280.156,241.735
0.039,1.136,1.568,1.568,276.956,280.292,241.690
0.041,1.297,1.630,1.630,277.015,280.433,241.640
0.043,1.463,1.687,1.687,277.082,280.575,241.586
0.045,1.629,1.737,1.737,277.152,280.714,241.528
0.047,1.791,1.774,1.774,277.221,280.849,241.470
0.049,1.944,1.796,1.796,277.286,280.974,241.411
0.051,2.084,1.797,1.797,277.343,281.088,241.353
0.053,2.206,1.779,1.779,277.389,281.186,241.297
0.055,2.309,1.750,1.750,277.422,281.267,241.243
0.057,2.395,1.720,1.720,277.441,281.331,241.188
0.059,2.470,1.701,1.701,277.444,281.376,241.129
0.061,2.541,1.701,1.701,277.433,281.403,241.064
0.063,2.621,1.727,1.727,277.405,281.411,240.990
0.065,2.719,1.769,1.769,277.359,281.400,240.904
0.067,2.842,1.814,1.814,277.296,281.368,240.803
0.069,2.994,1.853,1.853,277.214,281.316,240.686
0.071,3.177,1.873,1.873,277.114,281.244,240.551
0.073,3.384,1.869,1.869,277.000,281.156,240.402
0.075,3.606,1.846,1.846,276.877,281.058,240.246
0.077,3.833,1.811,1.811,276.750,280.954,240.089
0.079,4.057,1.771,1.771,276.625,280.850,239.936
0.081,4.267,1.734,1.734,276.506,280.749,239.794
0.083,4.456,1.703,1.703,276.399,280.658,239.668
0.085,4.613,1.679,1.679,276.308,280.582,239.564
0.087,4.731,1.661,1.661,276.239,280.524,239.489
0.089,4.808,1.648,1.648,276.192,280.486,239.441
0.091,4.851,1.639,1.639,276.165,280.464,239.417
0.093,4.866,1.633,1.633,276.153,280.455,239.411
0.096,4.875,1.631,1.631,276.155,280.457,239.420
0.098,4.898,1.632,1.632,276.168,280.466,239.438
0.100,4.931,1.637,1.637,276.187,280.478,239.461
0.102,4.967,1.647,1.647,276.211,280.492,239.484
0.104,5.000,1.659,1.659,276.235,280.503,239.503
0.106,5.027,1.672,1.672,276.259,280.510,239.514
0.108,5.047,1.685,1.685,276.278,280.510,239.517
0.110,5.063,1.694,1.694,276.292,280.505,239.509
0.112,5.084,1.698,1.698,276.297,280.494,239.492
0.114,5.117,1.696,1.696,276.292,280.475,239.465
0.116,5.166,1.687,1.687,276.274,280.450,239.427
0.118,5.234,1.673,1.673,276.242,280.416,239.378
0.120,5.322,1.654,1.654,276.193,280.375,239.318
0.122,5.433,1.631,1.631,276.125,280.324,239.245
0.124,5.564,1.604,1.604,276.040,280.268,239.164
0.126,5.707,1.575,1.575,275.944,280.207,239.076
0.128,5.856,1.547,1.547,275.841,280.147,238.988
0.130,6.002,1.521,1.521,275.738,280.091,238.902
0.132,6.138,1.500,1.500,275.638,280.041,238.823
0.134,6.257,1.484,1.484,275.548,280.001,238.756
0.136,6.352,1.475,1.475,275.473,279.975,238.704
0.138,6.417,1.473,1.473,275.417,279.966,238.672
0.140,6.454,1.480,1.480,275.383,279.974,238.661
0.142,6.480,1.495,1.495,275.367,279.994,238.663
0.144,6.505,1.517,1.517,275.362,280.017,238.671
0.146,6.526,1.537,1.537,275.363,280.037,238.676
0.148,6.536,1.548,1.548,275.363,280.046,238.671
0.150,6.563,1.541,1.541,275.357,280.037,238.646
0.152,6.629,1.509,1.509,275.339,280.001,238.594
0.154,6.747,1.455,1.455,275.302,279.931,238.506
0.157,6.928,1.391,1.391,275.241,279.822,238.375
0.159,7.168,1.333,1.333,275.158,279.675,238.205
0.161,7.450,1.294,1.294,275.059,279.502,238.005
0.163,7.760,1.289,1.289,274.951,279.312,237.786
0.165,8.081,1.318,1.318,274.838,279.116,237.558
0.167,8.398,1.369,1.369,274.728,278.923,237.331
0.169,8.695,1.430,1.430,274.627,278.745,237.116
0.171,8.957,1.488,1.488,274.541,278.591,236.923
0.173,9.167,1.530,1.530,274.476,278.471,236.763
0.175,9.318,1.554,1.554,274.436,278.392,236.641
0.177,9.417,1.567,1.567,274.417,278.348,236.554
0.179,9.477,1.575,1.575,274.416,278.334,236.496
0.181,9.515,1.586,1.586,274.430,278.344,236.461
0.183,9.555,1.607,1.607,274.453,278.371,236.444
0.185,9.603,1.637,1.637,274.483,278.409,236.440
0.187,9.657,1.673,1.673,274.515,278.452,236.442
0.189,9.710,1.709,1.709,274.546,278.495,236.446
0.191,9.754,1.741,1.741,274.572,278.530,236.446
0.193,9.789,1.763,1.763,274.592,278.558,236.441
0.195,9.821,1.775,1.775,274.610,278.582,236.428
0.197,9.854,1.776,1.776,274.627,278.602,236.409
0.199,9.891,1.766,1.766,274.646,278.623,236.384
0.201,9.937,1.747,1.747,274.669,278.645,236.351
0.203,9.993,1.719,1.719,274.697,278.672,236.311
0.205,10.062,1.685,1.685,274.734,278.707,236.263
0.207,10.147,1.650,1.650,274.781,278.750,236.208
0.209,10.248,1.620,1.620,274.839,278.802,236.144
0.211,10.359,1.600,1.600,274.906,278.857,236.075
0.213,10.474,1.594,1.594,274.979,278.908,236.002
0.215,10.589,1.600,1.600,275.056,278.946,235.926
0.217,10.699,1.609,1.609,275.134,278.966,235.850
0.220,10.807,1.613,1.613,275.210,278.959,235.775
0.222,10.916,1.604,1.604,275.281,278.919,235.702
0.224,11.039,1.573,1.573,275.345,278.838,235.635
0.226,11.191,1.525,1.525,275.400,278.711,235.574
0.228,11.375,1.471,1.471,275.446,278.541,235.519
0.230,11.586,1.423,1.423,275.487,278.339,235.471
0.232,11.817,1.391,1.391,275.524,278.115,235.429
0.234,12.058,1.386,1.386,275.560,277.880,235.392
0.236,12.300,1.404,1.404,275.599,277.643,235.361
0.238,12.534,1.437,1.437,275.643,277.415,235.335
0.240,12.750,1.474,1.474,275.695,277.206,235.313
0.242,12.941,1.505,1.505,275.757,277.027,235.295
0.244,13.104,1.520,1.520,275.830,276.882,235.281
0.246,13.246,1.518,1.518,275.914,276.767,235.271
0.248,13.376,1.503,1.503,276.005,276.676,235.264
0.250,13.497,1.478,1.478,276.103,276.603,235.261
0.252,13.615,1.446,1.446,276.204,276.542,235.262
0.254,13.732,1.412,1.412,276.307,276.488,235.267
0.256,13.848,1.377,1.377,276.410,276.435,235.275
0.258,13.966,1.345,1.345,276.511,276.376,235.286
0.260,14.086,1.319,1.319,276.608,276.306,235.302
0.262,14.209,1.300,1.300,276.700,276.226,235.321
0.264,14.336,1.293,1.293,276.787,276.138,235.344
0.266,14.465,1.297,1.297,276.871,276.044,235.373
0.268,14.595,1.311,1.311,276.950,275.947,235.408
0.270,14.724,1.335,1.335,277.024,275.849,235.449
0.272,14.852,1.368,1.368,277.095,275.754,235.496
0.274,14.977,1.410,1.410,277.162,275.663,235.552
0.276,15.100,1.457,1.457,277.225,275.580,235.615
0.278,15.220,1.508,1.508,277.285,275.504,235.687
0.280,15.339,1.558,1.558,277.340,275.433,235.764
0.283,15.458,1.606,1.606,277.393,275.364,235.846
0.285,15.578,1.648,1.648,277.442,275.293,235.929
0.287,15.700,1.684,1.684,277.488,275.218,236.013
0.289,15.824,1.715,1.715,277.532,275.134,236.094
0.291,15.953,1.742,1.742,277.572,275.039,236.172
0.293,16.090,1.767,1.767,277.610,274.929,236.243
0.295,16.236,1.789,1.789,277.645,274.802,236.307
0.297,16.394,1.810,1.810,277.677,274.658,236.364
0.299,16.562,1.829,1.829,277.707,274.502,236.417
0.301,16.738,1.846,1.846,277.732,274.335,236.468
0.303,16.921,1.862,1.862,277.755,274.161,236.518
0.305,17.108,1.876,1.876,277.773,273.982,236.571
0.307,17.297,1.893,1.893,277.787,273.802,236.628
0.309,17.487,1.918,1.918,277.796,273.624,236.692
0.311,17.676,1.954,1.954,277.800,273.450,236.765
0.313,17.862,2.007,2.007,277.799,273.282,236.847
0.315,18.044,2.079,2.079,277.794,273.123,236.936
0.317,18.221,2.165,2.165,277.786,272.973,237.027
0.319,18.388,2.255,2.255,277.776,272.833,237.118
0.321,18.545,2.341,2.341,277.765,272.703,237.206
0.323,18.688,2.414,2.414,277.753,272.587,237.288
0.325,18.814,2.466,2.466,277.741,272.483,237.360
0.327,18.922,2.502,2.502,277.731,272.394,237.418
0.329,19.008,2.525,2.525,277.724,272.320,237.462
0.331,19.075,2.540,2.540,277.717,272.260,237.492
0.333,19.128,2.554,2.554,277.711,272.211,237.512
0.335,19.171,2.569,2.569,277.703,272.171,237.526
0.337,19.208,2.587,2.587,277.693,272.138,237.538
0.339,19.243,2.606,2.606,277.679,272.110,237.552
0.341,19.281,2.625,2.625,277.661,272.083,237.572
0.343,19.328,2.645,2.645,277.635,272.056,237.601
0.346,19.389,2.665,2.665,277.603,272.026,237.644
0.348,19.466,2.686,2.686,277.562,271.993,237.700
0.350,19.556,2.708,2.708,277.517,271.955,237.768
0.352,19.654,2.732,2.732,277.469,271.913,237.843
0.354,19.758,2.759,2.759,277.421,271.866,237.921
0.356,19.862,2.790,2.790,277.375,271.815,238.000
0.358,19.964,2.825,2.825,277.334,271.760,238.076
0.360,20.061,2.861,2.861,277.300,271.701,238.144
0.362,20.150,2.899,2.899,277.277,271.637,238.202
0.364,20.232,2.937,2.937,277.265,271.569,238.246
0.366,20.310,2.974,2.974,277.263,271.498,238.278
0.368,20.386,3.011,3.011,277.270,271.425,238.300
0.370,20.461,3.047,3.047,277.282,271.353,238.313
0.372,20.533,3.082,3.082,277.298,271.283,238.321
0.374,20.602,3.116,3.116,277.315,271.216,238.326
0.376,20.665,3.148,3.148,277.330,271.155,238.331
0.378,20.722,3.178,3.178,277.341,271.100,238.336
0.380,20.769,3.206,3.206,277.345,271.054,238.346
0.382,20.809,3.232,3.232,277.341,271.016,238.361
0.384,20.847,3.254,3.254,277.329,270.987,238.381
0.386,20.887,3.273,3.273,277.306,270.965,238.405
0.388,20.934,3.286,3.286,277.272,270.949,238.433
0.390,20.990,3.294,3.294,277.226,270.937,238.464
0.392,21.058,3.293,3.293,277.168,270.930,238.499
0.394,21.139,3.284,3.284,277.096,270.926,238.536
0.396,21.234,3.265,3.265,277.010,270.923,238.575
0.398,21.343,3.244,3.244,276.909,270.922,238.616
0.400,21.463,3.226,3.226,276.797,270.920,238.659
0.402,21.592,3.217,3.217,276.677,270.917,238.707
0.404,21.727,3.224,3.224,276.554,270.912,238.761
0.407,21.864,3.248,3.248,276.432,270.904,238.823
0.409,22.001,3.283,3.283,276.315,270.891,238.893
0.411,22.137,3.320,3.320,276.207,270.873,238.974
0.413,22.271,3.350,3.350,276.113,270.849,239.067
0.415,22.406,3.365,3.365,276.037,270.817,239.173
0.417,22.543,3.362,3.362,275.980,270.778,239.292
0.419,22.684,3.347,3.347,275.938,270.735,239.419
0.421,22.826,3.325,3.325,275.910,270.689,239.551
0.423,22.968,3.305,3.305,275.892,270.643,239.683
0.425,23.104,3.293,3.293,275.880,270.599,239.812
0.427,23.231,3.292,3.292,275.873,270.559,239.933
0.429,23.345,3.300,3.300,275.868,270.527,240.042
0.431,23.442,3.312,3.312,275.860,270.503,240.135
0.433,23.518,3.325,3.325,275.848,270.490,240.209
0.435,23.577,3.335,3.335,275.832,270.487,240.266
0.437,23.625,3.341,3.341,275.811,270.490,240.309
0.439,23.665,3.343,3.343,275.787,270.498,240.340
0.441,23.702,3.341,3.341,275.759,270.507,240.363
0.443,23.739,3.337,3.337,275.728,270.516,240.381
0.445,23.776,3.333,3.333,275.695,270.522,240.396
0.447,23.815,3.328,3.328,275.659,270.522,240.413
0.449,23.859,3.322,3.322,275.622,270.514,240.434
0.451,23.908,3.317,3.317,275.583,270.498,240.459
0.453,23.960,3.312,3.312,275.545,270.477,240.488
0.455,24.013,3.307,3.307,275.509,270.454,240.519
0.457,24.063,3.301,3.301,275.477,270.432,240.551
0.459,24.109,3.294,3.294,275.448,270.415,240.582
0.461,24.146,3.282,3.282,275.426,270.405,240.611
0.463,24.175,3.263,3.263,275.411,270.406,240.636
0.465,24.201,3.237,3.237,275.405,270.420,240.655
0.467,24.233,3.204,3.204,275.407,270.449,240.670
0.470,24.272,3.168,3.168,275.414,270.485,240.682
0.472,24.310,3.136,3.136,275.419,270.520,240.698
0.474,24.345,3.112,3.112,275.417,270.542,240.724
0.476,24.388,3.101,3.101,275.400,270.543,240.764
0.478,24.464,3.100,3.100,275.363,270.514,240.824
0.480,24.591,3.101,3.101,275.301,270.443,240.909
0.482,24.784,3.090,3.090,275.206,270.323,241.025
0.484,25.054,3.058,3.058,275.073,270.143,241.177
0.486,25.398,2.993,2.993,274.904,269.907,241.362
0.488,25.796,2.897,2.897,274.709,269.629,241.570
0.490,26.226,2.787,2.787,274.496,269.327,241.790
0.492,26.666,2.680,2.680,274.277,269.016,242.011
0.494,27.095,2.592,2.592,274.060,268.713,242.222
0.496,27.490,2.540,2.540,273.856,268.432,242.412
0.498,27.831,2.526,2.526,273.674,268.192,242.572
0.500,28.096,2.538,2.538,273.525,268.007,242.689
0.502,28.271,2.563,2.563,273.415,267.889,242.756
0.504,28.370,2.589,2.589,273.342,267.828,242.783
0.506,28.413,2.603,2.603,273.302,267.812,242.779
0.508,28.441,2.602,2.602,273.289,267.825,242.758
0.510,28.483,2.591,2.591,273.299,267.854,242.731
0.512,28.530,2.576,2.576,273.327,267.885,242.709
0.514,28.575,2.563,2.563,273.368,267.904,242.704
0.516,28.631,2.558,2.558,273.418,267.896,242.728
0.518,28.726,2.562,2.562,273.471,267.850,242.792
0.520,28.873,2.575,2.575,273.524,267.762,242.897
0.522,29.063,2.595,2.595,273.576,267.641,243.034
0.524,29.284,2.622,2.622,273.627,267.497,243.194
0.526,29.522,2.654,2.654,273.673,267.340,243.367
0.528,29.765,2.689,2.689,273.715,267.179,243.543
0.530,29.999,2.724,2.724,273.750,267.023,243.714
0.533,30.211,2.754,2.754,273.778,266.882,243.870
0.535,30.387,2.777,2.777,273.797,266.765,244.001
0.537,30.519,2.789,2.789,273.806,266.679,244.100
0.539,30.610,2.791,2.791,273.807,266.621,244.170
0.541,30.667,2.786,2.786,273.802,266.588,244.216
0.543,30.698,2.779,2.779,273.791,266.575,244.242
0.545,30.714,2.773,2.773,273.778,266.576,244.252
0.547,30.733,2.772,2.772,273.763,266.589,244.251
0.549,30.758,2.778,2.778,273.750,266.607,244.244
0.551,30.783,2.787,2.787,273.739,266.627,244.234
0.553,30.803,2.799,2.799,273.732,266.645,244.227
0.555,30.815,2.812,2.812,273.728,266.657,244.226
0.557,30.824,2.824,2.824,273.725,266.662,244.233
0.559,30.843,2.833,2.833,273.720,266.659,244.251
0.561,30.877,2.838,2.838,273.710,266.648,244.281
0.563,30.931,2.837,2.837,273.692,266.625,244.327
0.565,31.010,2.827,2.827,273.662,266.592,244.391
0.567,31.115,2.806,2.806,273.619,266.545,244.476
0.569,31.252,2.779,2.779,273.559,266.485,244.583
0.571,31.422,2.751,2.751,273.480,266.410,244.713
0.573,31.617,2.728,2.728,273.387,266.324,244.862
0.575,31.831,2.717,2.717,273.283,266.229,245.022
0.577,32.053,2.722,2.722,273.172,266.129,245.188
0.579,32.277,2.743,2.743,273.060,266.026,245.352
0.581,32.494,2.774,2.774,272.950,265.924,245.509
0.583,32.696,2.812,2.812,272.847,265.826,245.652
0.585,32.874,2.850,2.850,272.755,265.735,245.774
0.587,33.022,2.886,2.886,272.677,265.654,245.870
0.589,33.139,2.915,2.915,272.615,265.583,245.939
0.591,33.232,2.935,2.935,272.564,265.520,245.985
0.593,33.308,2.944,2.944,272.520,265.465,246.013
0.596,33.374,2.940,2.940,272.480,265.414,246.028
0.598,33.436,2.922,2.922,272.441,265.367,246.033
0.600,33.499,2.891,2.891,272.397,265.321,246.033
0.602,33.568,2.854,2.854,272.346,265.275,246.033
0.604,33.646,2.815,2.815,272.284,265.227,246.037
0.606,33.738,2.780,2.780,272.209,265.176,246.049
0.608,33.840,2.754,2.754,272.123,265.123,246.066
0.610,33.948,2.736,2.736,272.033,265.069,246.090
0.612,34.057,2.726,2.726,271.941,265.016,246.117
0.614,34.164,2.723,2.723,271.852,264.967,246.148
0.616,34.264,2.725,2.725,271.770,264.921,246.181
0.618,34.352,2.731,2.731,271.699,264.881,246.215
0.620,34.424,2.740,2.740,271.644,264.848,246.249
0.622,34.478,2.750,2.750,271.609,264.824,246.281
0.624,34.516,2.761,2.761,271.592,264.807,246.312
0.626,34.547,2.771,2.771,271.589,264.795,246.340
0.628,34.576,2.779,2.779,271.596,264.785,246.367
0.630,34.605,2.784,2.784,271.608,264.774,246.391
0.632,34.635,2.784,2.784,271.621,264.758,246.412
0.634,34.666,2.778,2.778,271.630,264.735,246.431
0.636,34.703,2.766,2.766,271.630,264.703,246.448
0.638,34.752,2.746,2.746,271.617,264.657,246.462
0.640,34.820,2.718,2.718,271.588,264.597,246.473
0.642,34.906,2.683,2.683,271.544,264.522,246.480
0.644,35.011,2.643,2.643,271.486,264.435,246.484
0.646,35.133,2.597,2.597,271.417,264.335,246.483
0.648,35.269,2.547,2.547,271.338,264.224,246.478
0.650,35.419,2.493,2.493,271.251,264.103,246.467
0.652,35.580,2.437,2.437,271.157,263.973,246.451
0.654,35.751,2.379,2.379,271.059,263.834,246.428
0.657,35.931,2.322,2.322,270.957,263.689,246.399
0.659,36.118,2.266,2.266,270.852,263.538,246.364
0.661,36.311,2.214,2.214,270.745,263.382,246.327
0.663,36.509,2.173,2.173,270.633,263.224,246.289
0.665,36.710,2.145,2.145,270.517,263.063,246.252
0.667,36.914,2.136,2.136,270.397,262.902,246.220
0.669,37.119,2.148,2.148,270.271,262.742,246.194
0.671,37.326,2.176,2.176,270.139,262.583,246.177
0.673,37.533,2.213,2.213,270.002,262.429,246.171
0.675,37.740,2.253,2.253,269.859,262.279,246.177
0.677,37.944,2.289,2.289,269.713,262.137,246.193
0.679,38.142,2.317,2.317,269.569,262.003,246.216
0.681,38.330,2.336,2.336,269.430,261.880,246.243
0.683,38.503,2.352,2.352,269.298,261.771,246.272
0.685,38.658,2.366,2.366,269.179,261.676,246.300
0.687,38.790,2.383,2.383,269.075,261.599,246.325
0.689,38.894,2.403,2.403,268.990,261.541,246.342
0.691,38.968,2.425,2.425,268.927,261.503,246.352
0.693,39.016,2.446,2.446,268.884,261.484,246.354
0.695,39.046,2.464,2.464,268.855,261.476,246.352
0.697,39.066,2.475,2.475,268.835,261.475,246.352
0.699,39.083,2.478,2.478,268.818,261.475,246.356
0.701,39.106,2.474,2.474,268.799,261.471,246.369
0.703,39.147,2.465,2.465,268.773,261.455,246.395
0.705,39.213,2.451,2.451,268.733,261.424,246.438
0.707,39.314,2.436,2.436,268.675,261.372,246.502
0.709,39.454,2.421,2.421,268.594,261.294,246.587
0.711,39.627,2.413,2.413,268.493,261.196,246.688
0.713,39.826,2.415,2.415,268.374,261.082,246.798
0.715,40.044,2.436,2.436,268.238,260.954,246.911
0.717,40.273,2.479,2.479,268.088,260.819,247.019
0.720,40.507,2.547,2.547,267.926,260.681,247.117
0.722,40.742,2.633,2.633,267.753,260.543,247.196
0.724,40.973,2.728,2.728,267.573,260.410,247.251
0.726,41.198,2.821,2.821,267.386,260.286,247.275
0.728,41.420,2.905,2.905,267.196,260.172,247.271
0.730,41.638,2.972,2.972,267.007,260.065,247.244
0.732,41.853,3.023,3.023,266.822,259.966,247.201
0.734,42.061,3.059,3.059,266.644,259.873,247.148
0.736,42.259,3.080,3.080,266.476,259.784,247.091
0.738,42.443,3.086,3.086,266.323,259.698,247.036
0.740,42.609,3.081,3.081,266.187,259.613,246.990
0.742,42.755,3.071,3.071,266.073,259.529,246.959
0.744,42.882,3.060,3.060,265.979,259.445,246.944
0.746,42.999,3.057,3.057,265.902,259.357,246.940
0.748,43.113,3.067,3.067,265.834,259.265,246.938
0.750,43.231,3.092,3.092,265.771,259.166,246.931
0.752,43.358,3.128,3.128,265.705,259.059,246.911
0.754,43.502,3.167,3.167,265.631,258.942,246.871
0.756,43.672,3.206,3.206,265.542,258.814,246.803
0.758,43.879,3.236,3.236,265.434,258.672,246.700
0.760,44.131,3.257,3.257,265.299,258.515,246.556
0.762,44.424,3.275,3.275,265.143,258.345,246.374
0.764,44.746,3.298,3.298,264.973,258.169,246.165
0.766,45.083,3.334,3.334,264.798,257.991,245.939
0.768,45.423,3.389,3.389,264.624,257.815,245.706
0.770,45.752,3.465,3.465,264.460,257.647,245.476
0.772,46.057,3.555,3.555,264.314,257.491,245.259
0.774,46.324,3.648,3.648,264.194,257.352,245.064
0.776,46.540,3.736,3.736,264.108,257.236,244.903
0.778,46.702,3.809,3.809,264.057,257.145,244.779
0.780,46.818,3.863,3.863,264.035,257.074,244.690
0.783,46.898,3.902,3.902,264.031,257.022,244.630
0.785,46.950,3.930,3.930,264.036,256.984,244.593
0.787,46.983,3.951,3.951,264.041,256.958,244.576
0.789,47.002,3.969,3.969,264.036,256.939,244.574
0.791,47.031,3.987,3.987,264.012,256.924,244.580
0.793,47.086,4.006,4.006,263.961,256.909,244.592
0.795,47.176,4.027,4.027,263.873,256.892,244.603
0.797,47.299,4.051,4.051,263.752,256.872,244.613
0.799,47.445,4.080,4.080,263.608,256.850,244.622
0.801,47.607,4.111,4.111,263.448,256.827,244.629
0.803,47.775,4.142,4.142,263.282,256.802,244.635
0.805,47.941,4.168,4.168,263.117,256.778,244.639
0.807,48.097,4.187,4.187,262.963,256.755,244.642
0.809,48.233,4.194,4.194,262.829,256.733,244.644
0.811,48.342,4.190,4.190,262.722,256.713,244.644
0.813,48.420,4.179,4.179,262.646,256.695,244.644
0.815,48.474,4.165,4.165,262.594,256.679,244.645
0.817,48.513,4.154,4.154,262.559,256.663,244.650
0.819,48.547,4.149,4.149,262.532,256.646,244.661
0.821,48.584,4.151,4.151,262.507,256.627,244.681
0.823,48.633,4.155,4.155,262.476,256.605,244.711
0.825,48.701,4.158,4.158,262.430,256.578,244.754
0.827,48.796,4.154,4.154,262.364,256.546,244.813
0.829,48.922,4.139,4.139,262.269,256.507,244.888
