"T","Distance","Radius","FreeRadius","X","Y","Z"
0.000,0.000,1.154,1.154,276.978,279.247,241.844
0.001,0.009,1.162,1.162,276.987,279.248,241.846
0.002,0.017,1.170,1.170,276.995,279.250,241.849
0.004,0.025,1.178,1.178,277.001,279.253,241.851
0.005,0.032,1.184,1.184,277.007,279.257,241.853
0.006,0.040,1.190,1.190,277.011,279.263,241.855
0.007,0.049,1.195,1.195,277.013,279.272,241.857
0.008,0.061,1.198,1.198,277.012,279.284,241.859
0.010,0.076,1.199,1.199,277.008,279.299,241.860
0.011,0.097,1.198,1.198,277.000,279.318,241.861
0.012,0.123,1.196,1.196,276.989,279.341,241.862
0.013,0.155,1.194,1.194,276.973,279.369,241.862
0.014,0.194,1.194,1.194,276.954,279.403,241.862
0.016,0.239,1.196,1.196,276.932,279.442,241.860
0.017,0.290,1.202,1.202,276.909,279.488,241.858
0.018,0.346,1.214,1.214,276.888,279.540,241.854
0.019,0.409,1.232,1.232,276.869,279.599,241.848
0.020,0.477,1.258,1.258,276.854,279.665,241.839
0.022,0.553,1.293,1.293,276.845,279.740,241.828
0.023,0.637,1.335,1.335,276.843,279.822,241.814
0.024,0.730,1.382,1.382,276.850,279.914,241.797
0.025,0.834,1.432,1.432,276.867,280.014,241.776
0.026,0.950,1.484,1.484,276.896,280.123,241.751
0.028,1.076,1.534,1.534,276.936,280.240,241.722
0.029,1.210,1.583,1.583,276.983,280.361,241.689
0.030,1.348,1.626,1.626,277.035,280.483,241.653
0.031,1.488,1.664,1.664,277.092,280.604,241.613
0.032,1.625,1.696,1.696,277.149,280.722,241.570
0.034,1.758,1.723,1.723,277.205,280.832,241.523
0.035,1.882,1.746,1.746,277.258,280.933,241.473
0.036,1.996,1.767,1.767,277.306,281.022,241.420
0.037,2.097,1.787,1.787,277.345,281.096,241.364
0.038,2.183,1.807,1.807,277.375,281.152,241.306
0.040,2.258,1.829,1.829,277.393,281.191,241.245
0.041,2.325,1.852,1.852,277.401,281.215,241.182
0.042,2.390,1.878,1.878,277.401,281.227,241.118
0.043,2.455,1.903,1.903,277.392,281.233,241.054
0.044,2.521,1.927,1.927,277.376,281.235,240.990
0.046,2.587,1.945,1.945,277.354,281.236,240.928
0.047,2.654,1.957,1.957,277.327,281.241,240.867
0.048,2.721,1.959,1.959,277.296,281.253,240.809
0.049,2.789,1.950,1.950,277.263,281.275,240.754
0.050,2.861,1.926,1.926,277.227,281.312,240.703
0.052,2.941,1.887,1.887,277.190,281.366,240.657
0.053,3.030,1.836,1.836,277.153,281.437,240.619
0.054,3.130,1.780,1.780,277.116,281.525,240.590
0.055,3.241,1.723,1.723,277.079,281.629,240.575
0.056,3.365,1.670,1.670,277.043,281.747,240.576
0.058,3.503,1.628,1.628,277.008,281.879,240.597
0.059,3.657,1.601,1.601,276.975,282.024,240.640
0.060,3.830,1.595,1.595,276.944,282.181,240.708
0.061,4.026,1.616,1.616,276.916,282.348,240.804
0.062,4.245,1.663,1.663,276.890,282.525,240.932
0.064,4.493,1.731,1.731,276.867,282.711,241.094
0.065,4.769,1.817,1.817,276.848,282.904,241.290
0.066,5.067,1.914,1.914,276.831,283.101,241.512
0.067,5.381,2.019,2.019,276.815,283.301,241.755
0.068,5.704,2.126,2.126,276.800,283.498,242.010
0.070,6.028,2.230,2.230,276.784,283.692,242.269
0.071,6.346,2.327,2.327,276.767,283.878,242.526
0.072,6.650,2.413,2.413,276.748,284.055,242.773
0.073,6.933,2.488,2.488,276.725,284.218,243.002
0.074,7.187,2.554,2.554,276.697,284.366,243.207
0.076,7.405,2.612,2.612,276.665,284.495,243.380
0.077,7.581,2.664,2.664,276.626,284.602,243.514
0.078,7.718,2.710,2.710,276.582,284.690,243.610
0.079,7.823,2.753,2.753,276.533,284.758,243.672
0.080,7.905,2.793,2.793,276.479,284.811,243.706
0.082,7.975,2.832,2.832,276.423,284.851,243.717
0.083,8.040,2.869,2.869,276.365,284.879,243.708
0.084,8.107,2.905,2.905,276.305,284.898,243.686
0.085,8.176,2.937,2.937,276.245,284.911,243.654
0.086,8.246,2.966,2.966,276.186,284.919,243.617
0.088,8.314,2.991,2.991,276.128,284.926,243.581
0.089,8.378,3.011,3.011,276.073,284.933,243.550
0.090,8.436,3.025,3.025,276.021,284.942,243.526
0.091,8.488,3.033,3.033,275.972,284.953,243.511
0.092,8.536,3.034,3.034,275.927,284.966,243.501
0.094,8.580,3.030,3.030,275.886,284.981,243.497
0.095,8.621,3.022,3.022,275.848,284.996,243.496
0.096,8.659,3.011,3.011,275.815,285.013,243.499
0.097,8.693,3.000,3.000,275.785,285.031,243.502
0.098,8.724,2.990,2.990,275.761,285.049,243.506
0.100,8.751,2.981,2.981,275.740,285.067,243.509
0.101,8.775,2.975,2.975,275.725,285.086,243.510
0.102,8.797,2.974,2.974,275.714,285.104,243.508
0.103,8.817,2.976,2.976,275.707,285.122,243.503
0.104,8.839,2.980,2.980,275.703,285.142,243.495
0.106,8.865,2.984,2.984,275.698,285.166,243.485
0.107,8.895,2.987,2.987,275.693,285.193,243.474
0.108,8.930,2.987,2.987,275.685,285.226,243.463
0.109,8.973,2.981,2.981,275.673,285.265,243.452
0.110,9.025,2.969,2.969,275.654,285.313,243.443
0.112,9.088,2.949,2.949,275.628,285.370,243.435
0.113,9.165,2.921,2.921,275.592,285.437,243.430
0.114,9.257,2.887,2.887,275.545,285.516,243.428
0.115,9.365,2.850,2.850,275.487,285.607,243.430
0.116,9.487,2.812,2.812,275.418,285.708,243.435
0.118,9.619,2.776,2.776,275.342,285.816,243.443
0.119,9.756,2.743,2.743,275.262,285.926,243.453
0.120,9.895,2.717,2.717,275.178,286.038,243.465
0.121,10.033,2.700,2.700,275.095,286.146,243.479
0.122,10.164,2.693,2.693,275.015,286.249,243.493
0.124,10.286,2.694,2.694,274.940,286.343,243.507
0.125,10.393,2.701,2.701,274.872,286.426,243.520
0.126,10.483,2.712,2.712,274.814,286.493,243.533
0.127,10.552,2.723,2.723,274.769,286.543,243.544
0.128,10.599,2.733,2.733,274.736,286.576,243.553
0.130,10.629,2.739,2.739,274.713,286.595,243.558
0.131,10.646,2.738,2.738,274.697,286.603,243.559
0.132,10.657,2.728,2.728,274.688,286.603,243.554
0.133,10.671,2.710,2.710,274.681,286.599,243.542
0.134,10.692,2.685,2.685,274.676,286.594,243.522
0.136,10.722,2.656,2.656,274.669,286.592,243.494
0.137,10.762,2.625,2.625,274.659,286.595,243.455
0.138,10.815,2.595,2.595,274.643,286.606,243.405
0.139,10.886,2.568,2.568,274.619,286.630,243.343
0.140,10.977,2.546,2.546,274.585,286.668,243.268
0.142,11.086,2.531,2.531,274.540,286.718,243.182
0.143,11.210,2.525,2.525,274.484,286.777,243.088
0.144,11.346,2.525,2.525,274.417,286.842,242.989
0.145,11.491,2.527,2.527,274.338,286.909,242.887
0.146,11.643,2.528,2.528,274.247,286.975,242.786
0.148,11.799,2.524,2.524,274.144,287.037,242.686
0.149,11.958,2.513,2.513,274.028,287.092,242.593
0.150,12.119,2.491,2.491,273.900,287.137,242.507
0.151,12.282,2.456,2.456,273.758,287.167,242.432
0.152,12.450,2.403,2.403,273.603,287.181,242.370
0.154,12.626,2.337,2.337,273.433,287.179,242.321
0.155,12.812,2.264,2.264,273.251,287.167,242.284
0.156,13.011,2.187,2.187,273.055,287.151,242.255
0.157,13.221,2.114,2.114,272.847,287.136,242.233
0.158,13.443,2.049,2.049,272.625,287.129,242.215
0.160,13.678,1.998,1.998,272.392,287.134,242.198
0.161,13.926,1.968,1.968,272.146,287.159,242.179
0.162,14.189,1.962,1.962,271.888,287.208,242.158
0.163,14.472,1.984,1.984,271.618,287.287,242.130
0.164,14.778,2.030,2.030,271.336,287.403,242.094
0.166,15.113,2.099,2.099,271.044,287.560,242.047
0.167,15.472,2.187,2.187,270.746,287.751,241.991
0.168,15.849,2.291,2.291,270.445,287.970,241.929
0.169,16.236,2.409,2.409,270.148,288.209,241.861
0.170,16.625,2.538,2.538,269.859,288.460,241.791
0.172,17.008,2.675,2.675,269.582,288.714,241.721
0.173,17.375,2.817,2.817,269.324,288.966,241.651
0.174,17.717,2.961,2.961,269.089,289.205,241.586
0.175,18.026,3.103,3.103,268.881,289.426,241.526
0.176,18.291,3.241,3.241,268.707,289.620,241.475
0.178,18.505,3.371,3.371,268.570,289.779,241.433
0.179,18.665,3.490,3.490,268.471,289.900,241.402
0.180,18.776,3.593,3.593,268.407,289.989,241.381
0.181,18.846,3.679,3.679,268.373,290.049,241.368
0.182,18.884,3.744,3.744,268.364,290.085,241.362
0.184,18.905,3.789,3.789,268.375,290.102,241.361
0.185,18.932,3.816,3.816,268.401,290.105,241.365
0.186,18.970,3.829,3.829,268.439,290.098,241.371
0.187,19.016,3.832,3.832,268.483,290.086,241.379
0.188,19.064,3.827,3.827,268.528,290.074,241.386
0.190,19.107,3.820,3.820,268.570,290.067,241.393
0.191,19.142,3.812,3.812,268.605,290.068,241.397
0.192,19.170,3.808,3.808,268.632,290.077,241.398
0.193,19.196,3.810,3.810,268.651,290.094,241.398
0.194,19.222,3.817,3.817,268.664,290.116,241.396
0.196,19.249,3.827,3.827,268.671,290.142,241.392
0.197,19.277,3.840,3.840,268.673,290.170,241.388
0.198,19.306,3.854,3.854,268.670,290.199,241.383
0.199,19.335,3.867,3.867,268.663,290.227,241.378
0.200,19.363,3.879,3.879,268.653,290.252,241.374
0.202,19.388,3.888,3.888,268.640,290.273,241.370
0.203,19.409,3.892,3.892,268.626,290.289,241.368
0.204,19.427,3.893,3.893,268.611,290.299,241.367
0.205,19.444,3.891,3.891,268.596,290.305,241.366
0.206,19.458,3.887,3.887,268.583,290.310,241.365
0.208,19.471,3.883,3.883,268.572,290.317,241.364
0.209,19.484,3.881,3.881,268.565,290.327,241.360
0.210,19.502,3.880,3.880,268.563,290.344,241.354
0.211,19.529,3.883,3.883,268.568,290.369,241.345
0.212,19.570,3.891,3.891,268.581,290.406,241.331
0.214,19.628,3.904,3.904,268.602,290.456,241.313
0.215,19.705,3.921,3.921,268.633,290.523,241.289
0.216,19.805,3.943,3.943,268.676,290.608,241.259
0.217,19.926,3.969,3.969,268.729,290.711,241.224
0.218,20.066,3.997,3.997,268.791,290.830,241.185
0.220,20.222,4.028,4.028,268.861,290.964,241.144
0.221,20.392,4.060,4.060,268.936,291.110,241.104
0.222,20.573,4.094,4.094,269.016,291.268,241.065
0.223,20.762,4.129,4.129,269.098,291.434,241.029
0.224,20.957,4.164,4.164,269.182,291.608,240.999
0.226,21.156,4.200,4.200,269.266,291.787,240.975
0.227,21.357,4.236,4.236,269.349,291.970,240.960
0.228,21.558,4.274,4.274,269.428,292.155,240.956
0.229,21.759,4.313,4.313,269.502,292.340,240.963
0.230,21.958,4.353,4.353,269.573,292.526,240.981
0.232,22.158,4.395,4.395,269.639,292.713,241.008
0.233,22.359,4.439,4.439,269.702,292.900,241.046
0.234,22.561,4.484,4.484,269.761,293.087,241.092
0.235,22.764,4.530,4.530,269.817,293.275,241.145
0.236,22.969,4.578,4.578,269.869,293.464,241.207
0.238,23.175,4.628,4.628,269.918,293.652,241.274
0.239,23.383,4.679,4.679,269.964,293.841,241.347
0.240,23.593,4.732,4.732,270.007,294.031,241.425
0.241,23.803,4.786,4.786,270.048,294.221,241.508
0.242,24.015,4.841,4.841,270.086,294.410,241.594
0.244,24.225,4.897,4.897,270.122,294.596,241.683
0.245,24.432,4.955,4.955,270.156,294.780,241.774
0.246,24.635,5.014,5.014,270.189,294.957,241.865
0.247,24.832,5.073,5.073,270.219,295.129,241.958
0.248,25.021,5.133,5.133,270.249,295.292,242.050
0.250,25.202,5.193,5.193,270.277,295.445,242.141
0.251,25.371,5.253,5.253,270.304,295.587,242.230
0.252,25.529,5.313,5.313,270.331,295.716,242.316
0.253,25.674,5.373,5.373,270.357,295.832,242.399
0.255,25.803,5.431,5.431,270.383,295.932,242.478
0.256,25.919,5.486,5.486,270.409,296.017,242.551
0.257,26.021,5.535,5.535,270.435,296.090,242.618
0.258,26.109,5.576,5.576,270.463,296.150,242.677
0.259,26.185,5.607,5.607,270.491,296.199,242.726
0.261,26.248,5.626,5.626,270.521,296.238,242.765
0.262,26.300,5.630,5.630,270.553,296.268,242.793
0.263,26.343,5.619,5.619,270.587,296.290,242.808
0.264,26.383,5.591,5.591,270.624,296.306,242.810
0.265,26.427,5.551,5.551,270.664,296.316,242.796
0.267,26.480,5.502,5.502,270.707,296.321,242.765
0.268,26.542,5.450,5.450,270.752,296.323,242.722
0.269,26.608,5.397,5.397,270.796,296.322,242.673
0.270,26.672,5.348,5.348,270.837,296.320,242.624
0.271,26.727,5.308,5.308,270.872,296.317,242.582
0.273,26.765,5.280,5.280,270.897,296.314,242.554
0.274,26.780,5.268,5.268,270.911,296.312,242.546
0.275,26.800,5.270,5.270,270.909,296.313,242.566
0.276,26.857,5.281,5.281,270.891,296.317,242.620
0.277,26.959,5.298,5.298,270.852,296.325,242.714
0.279,27.114,5.314,5.314,270.790,296.338,242.856
0.280,27.326,5.327,5.327,270.704,296.356,243.048
0.281,27.586,5.331,5.331,270.597,296.380,243.284
0.282,27.882,5.322,5.322,270.475,296.408,243.553
0.283,28.203,5.296,5.296,270.341,296.439,243.843
0.285,28.538,5.252,5.252,270.202,296.471,244.145
0.286,28.873,5.195,5.195,270.061,296.505,244.447
0.287,29.198,5.129,5.129,269.924,296.539,244.740
0.288,29.501,5.060,5.060,269.796,296.572,245.013
0.289,29.770,4.993,4.993,269.682,296.603,245.255
0.291,29.994,4.933,4.933,269.586,296.632,245.455
0.292,30.162,4.884,4.884,269.513,296.656,245.604
0.293,30.271,4.851,4.851,269.464,296.676,245.700
0.294,30.332,4.839,4.839,269.435,296.691,245.750
0.295,30.354,4.843,4.843,269.422,296.702,245.764
0.297,30.369,4.860,4.860,269.421,296.708,245.750
0.298,30.404,4.885,4.885,269.428,296.709,245.716
0.299,30.451,4.914,4.914,269.440,296.706,245.671
0.300,30.502,4.942,4.942,269.452,296.697,245.622
0.301,30.548,4.964,4.964,269.460,296.683,245.579
0.303,30.583,4.977,4.977,269.460,296.664,245.549
0.304,30.611,4.975,4.975,269.449,296.640,245.542
0.305,30.656,4.959,4.959,269.422,296.610,245.563
0.306,30.727,4.930,4.930,269.383,296.576,245.612
0.307,30.822,4.891,4.891,269.333,296.538,245.683
0.309,30.937,4.846,4.846,269.275,296.498,245.774
0.310,31.066,4.796,4.796,269.212,296.457,245.879
0.311,31.206,4.744,4.744,269.146,296.415,245.995
0.312,31.351,4.692,4.692,269.081,296.373,246.118
0.313,31.497,4.644,4.644,269.019,296.333,246.243
0.315,31.638,4.601,4.601,268.962,296.296,246.367
0.316,31.769,4.563,4.563,268.914,296.262,246.484
0.317,31.887,4.530,4.530,268.877,296.232,246.593
0.318,31.990,4.502,4.502,268.852,296.208,246.688
0.319,32.077,4.480,4.480,268.837,296.187,246.772
0.321,32.149,4.462,4.462,268.831,296.170,246.842
0.322,32.209,4.449,4.449,268.831,296.156,246.900
0.323,32.255,4.441,4.441,268.837,296.145,246.945
0.324,32.290,4.438,4.438,268.846,296.134,246.976
0.325,32.312,4.439,4.439,268.856,296.125,246.995
0.327,32.326,4.441,4.441,268.865,296.116,246.999
0.328,32.341,4.444,4.444,268.873,296.107,246.990
0.329,32.367,4.446,4.446,268.877,296.097,246.967
0.330,32.404,4.445,4.445,268.875,296.085,246.931
0.331,32.450,4.440,4.440,268.868,296.072,246.889
0.333,32.495,4.428,4.428,268.856,296.058,246.848
0.334,32.532,4.410,4.410,268.841,296.044,246.817
0.335,32.557,4.383,4.383,268.824,296.029,246.805
0.336,32.586,4.349,4.349,268.804,296.015,246.821
0.337,32.643,4.310,4.310,268.784,296.002,246.872
0.339,32.741,4.268,4.268,268.765,295.990,246.969
0.340,32.892,4.223,4.223,268.746,295.980,247.118
0.341,33.104,4.177,4.177,268.729,295.972,247.328
0.342,33.385,4.131,4.131,268.715,295.967,247.609
0.343,33.736,4.087,4.087,268.705,295.965,247.960
0.345,34.144,4.046,4.046,268.698,295.964,248.369
0.346,34.595,4.008,4.008,268.696,295.962,248.819
0.347,35.074,3.974,3.974,268.698,295.960,249.298
0.348,35.565,3.943,3.943,268.704,295.955,249.789
0.349,36.056,3.915,3.915,268.716,295.947,250.280
0.351,36.531,3.889,3.889,268.733,295.933,250.754
0.352,36.975,3.867,3.867,268.755,295.913,251.198
0.353,37.376,3.848,3.848,268.783,295.885,251.596
0.354,37.718,3.832,3.832,268.817,295.848,251.935
0.355,37.991,3.818,3.818,268.857,295.802,252.201
0.357,38.199,3.807,3.807,268.901,295.746,252.397
0.358,38.356,3.798,3.798,268.947,295.684,252.533
0.359,38.473,3.792,3.792,268.992,295.618,252.619
0.360,38.566,3.787,3.787,269.034,295.551,252.666
0.361,38.644,3.783,3.783,269.070,295.484,252.684
0.363,38.713,3.781,3.781,269.097,295.420,252.683
0.364,38.774,3.780,3.780,269.113,295.362,252.673
0.365,38.826,3.780,3.780,269.116,295.311,252.665
0.366,38.869,3.780,3.780,269.102,295.270,252.669
0.367,38.919,3.780,3.780,269.069,295.242,252.695
0.369,38.996,3.779,3.779,269.017,295.227,252.749
0.370,39.100,3.776,3.776,268.949,295.220,252.828
0.371,39.225,3.772,3.772,268.871,295.216,252.926
0.372,39.365,3.765,3.765,268.788,295.209,253.038
0.373,39.514,3.755,3.755,268.703,295.196,253.160
0.375,39.667,3.742,3.742,268.623,295.170,253.288
0.376,39.819,3.726,3.726,268.551,295.127,253.415
0.377,39.970,3.706,3.706,268.492,295.062,253.537
0.378,40.122,3.684,3.684,268.451,294.969,253.650
0.379,40.282,3.659,3.659,268.433,294.844,253.748
0.381,40.463,3.632,3.632,268.443,294.681,253.827
0.382,40.672,3.604,3.604,268.478,294.484,253.887
0.383,40.906,3.574,3.574,268.535,294.262,253.931
0.384,41.159,3.544,3.544,268.610,294.022,253.961
0.385,41.424,3.513,3.513,268.697,293.772,253.980
0.387,41.693,3.483,3.483,268.792,293.521,253.992
0.388,41.957,3.453,3.453,268.892,293.276,253.998
0.389,42.207,3.425,3.425,268.990,293.046,254.003
0.390,42.434,3.398,3.398,269.083,292.839,254.007
0.391,42.629,3.375,3.375,269.167,292.663,254.015
0.393,42.783,3.355,3.355,269.237,292.527,254.029
0.394,42.893,3.340,3.340,269.289,292.434,254.051
0.395,42.966,3.328,3.328,269.326,292.379,254.083
0.396,43.018,3.321,3.321,269.349,292.356,254.124
0.397,43.072,3.315,3.315,269.359,292.358,254.177
0.399,43.138,3.311,3.311,269.360,292.377,254.240
0.400,43.221,3.307,3.307,269.352,292.408,254.316
0.401,43.317,3.301,3.301,269.337,292.443,254.405
0.402,43.426,3.292,3.292,269.318,292.475,254.507
0.403,43.546,3.278,3.278,269.296,292.498,254.623
0.405,43.680,3.260,3.260,269.274,292.504,254.755
0.406,43.829,3.235,3.235,269.252,292.487,254.901
0.407,43.995,3.204,3.204,269.232,292.447,255.062
0.408,44.176,3.169,3.169,269.215,292.387,255.231
0.409,44.368,3.129,3.129,269.199,292.311,255.406
0.411,44.565,3.086,3.086,269.184,292.223,255.583
0.412,44.764,3.039,3.039,269.172,292.128,255.756
0.413,44.958,2.990,2.990,269.162,292.030,255.923
0.414,45.142,2.939,2.939,269.154,291.931,256.079
0.415,45.312,2.886,2.886,269.148,291.837,256.221
0.417,45.461,2.834,2.834,269.144,291.752,256.343
0.418,45.584,2.785,2.785,269.142,291.680,256.442
0.419,45.677,2.740,2.740,269.143,291.622,256.515
0.420,45.743,2.701,2.701,269.144,291.581,256.566
0.421,45.786,2.670,2.670,269.146,291.553,256.599
0.423,45.810,2.650,2.650,269.147,291.538,256.618
0.424,45.820,2.641,2.641,269.146,291.534,256.627
0.425,45.829,2.646,2.646,269.143,291.541,256.632
0.426,45.846,2.664,2.664,269.137,291.557,256.635
0.427,45.873,2.692,2.692,269.127,291.581,256.642
0.429,45.911,2.726,2.726,269.111,291.612,256.657
0.430,45.961,2.764,2.764,269.089,291.648,256.684
0.431,46.027,2.802,2.802,269.061,291.689,256.727
0.432,46.110,2.837,2.837,269.026,291.733,256.788
0.433,46.205,2.866,2.866,268.986,291.779,256.861
0.435,46.310,2.886,2.886,268.942,291.826,256.945
0.436,46.421,2.896,2.896,268.898,291.872,257.034
0.437,46.533,2.896,2.896,268.853,291.918,257.127
0.438,46.643,2.889,2.889,268.811,291.961,257.219
0.439,46.746,2.878,2.878,268.772,292.000,257.306
0.441,46.839,2.864,2.864,268.738,292.035,257.385
0.442,46.917,2.850,2.850,268.712,292.065,257.453
0.443,46.977,2.838,2.838,268.694,292.087,257.505
0.444,47.016,2.830,2.830,268.686,292.102,257.540
0.445,47.037,2.829,2.829,268.685,292.110,257.560
0.447,47.047,2.832,2.832,268.691,292.112,257.567
0.448,47.055,2.838,2.838,268.699,292.110,257.566
0.449,47.068,2.846,2.846,268.707,292.103,257.559
0.450,47.081,2.852,2.852,268.713,292.095,257.550
0.451,47.093,2.856,2.856,268.714,292.085,257.543
0.453,47.105,2.853,2.853,268.708,292.075,257.541
0.454,47.125,2.844,2.844,268.691,292.066,257.547
0.455,47.160,2.825,2.825,268.662,292.059,257.564
0.456,47.216,2.796,2.796,268.617,292.056,257.597
0.457,47.293,2.759,2.759,268.557,292.055,257.646
0.459,47.389,2.716,2.716,268.483,292.057,257.707
0.460,47.498,2.670,2.670,268.400,292.060,257.778
0.461,47.618,2.622,2.622,268.308,292.063,257.855
0.462,47.744,2.574,2.574,268.211,292.064,257.935
0.463,47.872,2.529,2.529,268.112,292.063,258.016
0.465,47.997,2.489,2.489,268.013,292.058,258.093
0.466,48.117,2.454,2.454,267.917,292.047,258.165
0.467,48.228,2.425,2.425,267.827,292.031,258.226
0.468,48.327,2.400,2.400,267.745,292.007,258.276
0.469,48.413,2.376,2.376,267.673,291.975,258.310
0.471,48.490,2.352,2.352,267.611,291.935,258.331
0.472,48.564,2.326,2.326,267.556,291.887,258.343
0.473,48.638,2.296,2.296,267.507,291.832,258.349
0.474,48.715,2.261,2.261,267.461,291.770,258.353
0.475,48.796,2.219,2.219,267.416,291.702,258.359
0.477,48.883,2.170,2.170,267.370,291.629,258.370
0.478,48.977,2.115,2.115,267.322,291.552,258.390
0.479,49.080,2.057,2.057,267.268,291.470,258.423
0.480,49.195,1.996,1.996,267.208,291.385,258.471
0.481,49.327,1.935,1.935,267.138,291.296,258.540
0.483,49.477,1.876,1.876,267.059,291.205,258.629
0.484,49.641,1.820,1.820,266.973,291.112,258.734
0.485,49.816,1.768,1.768,266.882,291.018,258.850
0.486,49.997,1.723,1.723,266.790,290.922,258.972
0.487,50.178,1.683,1.683,266.698,290.825,259.095
0.489,50.356,1.649,1.649,266.609,290.728,259.214
0.490,50.524,1.620,1.620,266.526,290.631,259.324
