"T","Distance","Radius","FreeRadius","X","Y","Z"
0.000,0.000,0.967,0.967,278.298,275.230,243.961
0.001,0.119,0.969,0.969,278.260,275.255,244.072
0.002,0.238,0.971,0.971,278.223,275.279,244.182
0.004,0.355,0.974,0.974,278.187,275.304,244.290
0.005,0.470,0.978,0.978,278.152,275.328,244.397
0.006,0.582,0.983,0.983,278.118,275.351,244.502
0.007,0.691,0.990,0.990,278.086,275.374,244.603
0.009,0.795,0.999,0.999,278.057,275.397,244.701
0.010,0.895,1.011,1.011,278.031,275.419,244.794
0.011,0.989,1.025,1.025,278.008,275.440,244.883
0.012,1.077,1.042,1.042,277.989,275.460,244.966
0.013,1.158,1.060,1.060,277.973,275.479,245.043
0.015,1.231,1.080,1.080,277.962,275.496,245.114
0.016,1.297,1.101,1.101,277.956,275.513,245.177
0.017,1.356,1.122,1.122,277.954,275.529,245.233
0.018,1.409,1.143,1.143,277.954,275.544,245.285
0.020,1.458,1.163,1.163,277.957,275.559,245.331
0.021,1.503,1.181,1.181,277.961,275.575,245.374
0.022,1.547,1.198,1.198,277.966,275.591,245.414
0.023,1.589,1.214,1.214,277.969,275.609,245.452
0.025,1.631,1.229,1.229,277.971,275.628,245.489
0.026,1.675,1.242,1.242,277.969,275.649,245.527
0.027,1.720,1.255,1.255,277.964,275.673,245.566
0.028,1.770,1.267,1.267,277.955,275.700,245.607
0.029,1.826,1.279,1.279,277.939,275.730,245.651
0.031,1.889,1.290,1.290,277.917,275.764,245.699
0.032,1.959,1.301,1.301,277.889,275.802,245.751
0.033,2.036,1.313,1.313,277.855,275.844,245.806
0.034,2.120,1.327,1.327,277.816,275.889,245.865
0.036,2.209,1.343,1.343,277.774,275.938,245.927
0.037,2.304,1.362,1.362,277.729,275.991,245.991
0.038,2.402,1.385,1.385,277.683,276.047,246.057
0.039,2.503,1.413,1.413,277.636,276.107,246.124
0.040,2.607,1.446,1.446,277.590,276.170,246.193
0.042,2.713,1.485,1.485,277.544,276.236,246.263
0.043,2.821,1.529,1.529,277.501,276.305,246.332
0.044,2.929,1.578,1.578,277.461,276.377,246.402
0.045,3.037,1.629,1.629,277.426,276.452,246.471
0.047,3.145,1.683,1.683,277.394,276.529,246.539
0.048,3.252,1.739,1.739,277.366,276.608,246.607
0.049,3.359,1.794,1.794,277.342,276.688,246.673
0.050,3.463,1.849,1.849,277.321,276.767,246.739
0.052,3.566,1.903,1.903,277.301,276.844,246.803
0.053,3.665,1.955,1.955,277.284,276.918,246.866
0.054,3.760,2.004,2.004,277.268,276.989,246.928
0.055,3.852,2.051,2.051,277.252,277.056,246.988
0.056,3.938,2.096,2.096,277.237,277.117,247.047
0.058,4.018,2.138,2.138,277.222,277.172,247.104
0.059,4.093,2.177,2.177,277.205,277.218,247.160
0.060,4.161,2.213,2.213,277.188,277.257,247.213
0.061,4.224,2.245,2.245,277.169,277.287,247.265
0.063,4.282,2.274,2.274,277.149,277.309,247.315
0.064,4.336,2.299,2.299,277.129,277.325,247.363
0.065,4.387,2.321,2.321,277.110,277.337,247.409
0.066,4.435,2.339,2.339,277.092,277.345,247.452
0.067,4.480,2.354,2.354,277.076,277.351,247.494
0.069,4.522,2.366,2.366,277.062,277.356,247.533
0.070,4.560,2.375,2.375,277.051,277.362,247.569
0.071,4.595,2.380,2.380,277.044,277.369,247.603
0.072,4.629,2.382,2.382,277.041,277.380,247.635
0.074,4.661,2.382,2.382,277.044,277.395,247.663
0.075,4.695,2.380,2.380,277.052,277.415,247.689
0.076,4.733,2.377,2.377,277.066,277.442,247.712
0.077,4.775,2.374,2.374,277.085,277.473,247.734
0.079,4.820,2.370,2.370,277.107,277.506,247.753
0.080,4.865,2.367,2.367,277.131,277.539,247.773
0.081,4.909,2.365,2.365,277.157,277.569,247.792
0.082,4.951,2.365,2.365,277.183,277.595,247.812
0.083,4.988,2.366,2.366,277.207,277.614,247.834
0.085,5.022,2.367,2.367,277.229,277.623,247.857
0.086,5.054,2.368,2.368,277.247,277.622,247.884
0.087,5.090,2.368,2.368,277.260,277.606,247.914
0.088,5.137,2.366,2.366,277.268,277.575,247.948
0.090,5.200,2.362,2.362,277.267,277.526,247.987
0.091,5.282,2.355,2.355,277.259,277.458,248.032
0.092,5.383,2.345,2.345,277.243,277.371,248.081
0.093,5.500,2.332,2.332,277.220,277.269,248.133
0.094,5.630,2.315,2.315,277.192,277.155,248.188
0.096,5.771,2.296,2.296,277.159,277.029,248.243
0.097,5.921,2.273,2.273,277.123,276.894,248.298
0.098,6.076,2.248,2.248,277.085,276.754,248.352
0.099,6.234,2.221,2.221,277.044,276.610,248.404
0.101,6.393,2.191,2.191,277.004,276.464,248.452
0.102,6.549,2.159,2.159,276.964,276.320,248.496
0.103,6.700,2.126,2.126,276.925,276.178,248.533
0.104,6.844,2.094,2.094,276.889,276.042,248.564
0.106,6.978,2.065,2.065,276.857,275.914,248.587
0.107,7.102,2.040,2.040,276.828,275.795,248.604
0.108,7.215,2.022,2.022,276.801,275.686,248.619
0.109,7.318,2.012,2.012,276.777,275.588,248.635
0.110,7.410,2.011,2.011,276.754,275.501,248.654
0.112,7.492,2.023,2.023,276.733,275.426,248.681
0.113,7.567,2.045,2.045,276.712,275.365,248.719
0.114,7.639,2.072,2.072,276.692,275.318,248.770
0.115,7.717,2.099,2.099,276.671,275.286,248.838
0.117,7.809,2.120,2.120,276.649,275.270,248.926
0.118,7.922,2.130,2.130,276.626,275.270,249.037
0.119,8.063,2.123,2.123,276.601,275.288,249.174
0.120,8.236,2.095,2.095,276.573,275.325,249.341
0.121,8.440,2.040,2.040,276.543,275.378,249.535
0.123,8.670,1.956,1.956,276.509,275.447,249.752
0.124,8.921,1.850,1.850,276.472,275.528,249.987
0.125,9.189,1.728,1.728,276.430,275.621,250.235
0.126,9.469,1.599,1.599,276.385,275.723,250.491
0.128,9.756,1.469,1.469,276.334,275.832,250.752
0.129,10.045,1.346,1.346,276.279,275.946,251.012
0.130,10.332,1.236,1.236,276.217,276.063,251.266
0.131,10.611,1.148,1.148,276.150,276.180,251.510
0.133,10.878,1.087,1.087,276.077,276.297,251.740
0.134,11.130,1.050,1.050,275.997,276.410,251.950
0.135,11.362,1.035,1.035,275.910,276.518,252.135
0.136,11.573,1.035,1.035,275.816,276.619,252.296
0.137,11.768,1.049,1.049,275.718,276.713,252.435
0.139,11.947,1.071,1.071,275.616,276.799,252.554
0.140,12.112,1.099,1.099,275.512,276.877,252.656
0.141,12.265,1.126,1.126,275.407,276.945,252.745
0.142,12.407,1.151,1.151,275.303,277.004,252.822
0.144,12.539,1.172,1.172,275.201,277.052,252.891
0.145,12.662,1.191,1.191,275.104,277.089,252.955
0.146,12.775,1.209,1.209,275.011,277.114,253.016
0.147,12.881,1.227,1.227,274.925,277.127,253.077
0.148,12.982,1.246,1.246,274.847,277.127,253.140
0.150,13.080,1.268,1.268,274.779,277.113,253.210
0.151,13.180,1.293,1.293,274.721,277.086,253.286
0.152,13.282,1.322,1.322,274.672,277.049,253.367
0.153,13.386,1.356,1.356,274.631,277.004,253.451
0.155,13.491,1.392,1.392,274.598,276.954,253.538
0.156,13.595,1.428,1.428,274.570,276.901,253.624
0.157,13.697,1.463,1.463,274.548,276.849,253.708
0.158,13.793,1.495,1.495,274.531,276.800,253.789
0.160,13.882,1.521,1.521,274.516,276.756,253.865
0.161,13.960,1.540,1.540,274.504,276.721,253.933
0.162,14.025,1.550,1.550,274.494,276.697,253.994
0.163,14.077,1.551,1.551,274.483,276.687,254.043
0.164,14.117,1.543,1.543,274.472,276.693,254.081
0.166,14.153,1.528,1.528,274.460,276.716,254.106
0.167,14.193,1.509,1.509,274.447,276.751,254.120
0.168,14.238,1.486,1.486,274.432,276.793,254.125
0.169,14.284,1.461,1.461,274.417,276.836,254.124
0.171,14.327,1.436,1.436,274.402,276.876,254.118
0.172,14.362,1.413,1.413,274.386,276.906,254.110
0.173,14.387,1.393,1.393,274.370,276.922,254.101
0.174,14.404,1.378,1.378,274.354,276.919,254.094
0.175,14.437,1.370,1.370,274.338,276.890,254.091
0.177,14.499,1.370,1.370,274.323,276.830,254.094
0.178,14.596,1.380,1.380,274.308,276.735,254.106
0.179,14.734,1.403,1.403,274.295,276.599,254.127
0.180,14.918,1.440,1.440,274.282,276.418,254.161
0.182,15.142,1.492,1.492,274.270,276.199,254.206
0.183,15.398,1.561,1.561,274.259,275.950,254.261
0.184,15.678,1.643,1.643,274.247,275.677,254.327
0.185,15.976,1.734,1.734,274.235,275.390,254.401
0.187,16.282,1.826,1.826,274.222,275.095,254.483
0.188,16.591,1.916,1.916,274.207,274.800,254.572
0.189,16.894,1.997,1.997,274.191,274.513,254.667
0.190,17.184,2.064,2.064,274.173,274.241,254.767
0.191,17.454,2.112,2.112,274.153,273.993,254.872
0.193,17.697,2.135,2.135,274.130,273.776,254.981
0.194,17.909,2.134,2.134,274.103,273.598,255.092
0.195,18.086,2.113,2.113,274.073,273.465,255.204
0.196,18.235,2.078,2.078,274.039,273.375,255.318
0.198,18.364,2.032,2.032,274.002,273.323,255.430
0.199,18.483,1.980,1.980,273.962,273.303,255.540
0.200,18.598,1.928,1.928,273.920,273.311,255.647
0.201,18.714,1.880,1.880,273.875,273.342,255.750
0.202,18.831,1.840,1.840,273.827,273.389,255.846
0.204,18.949,1.812,1.812,273.778,273.448,255.935
0.205,19.065,1.792,1.792,273.727,273.514,256.015
0.206,19.176,1.780,1.780,273.675,273.582,256.086
0.207,19.279,1.774,1.774,273.621,273.646,256.146
0.209,19.370,1.772,1.772,273.566,273.701,256.193
0.210,19.447,1.773,1.773,273.511,273.743,256.226
0.211,19.512,1.774,1.774,273.455,273.771,256.249
0.212,19.571,1.774,1.774,273.402,273.789,256.265
0.213,19.626,1.771,1.771,273.350,273.799,256.278
0.215,19.677,1.764,1.764,273.302,273.806,256.294
0.216,19.726,1.753,1.753,273.259,273.811,256.317
0.217,19.777,1.737,1.737,273.221,273.818,256.350
0.218,19.836,1.716,1.716,273.191,273.830,256.399
0.220,19.911,1.687,1.687,273.168,273.849,256.468
0.221,20.010,1.651,1.651,273.155,273.880,256.562
0.222,20.140,1.607,1.607,273.152,273.925,256.684
0.223,20.307,1.554,1.554,273.161,273.987,256.839
0.225,20.518,1.496,1.496,273.182,274.069,257.031
0.226,20.769,1.437,1.437,273.215,274.170,257.260
0.227,21.056,1.380,1.380,273.256,274.286,257.518
0.228,21.368,1.330,1.330,273.303,274.411,257.800
0.229,21.698,1.291,1.291,273.353,274.542,258.100
0.231,22.039,1.267,1.267,273.403,274.673,258.411
0.232,22.383,1.262,1.262,273.449,274.800,258.726
0.233,22.721,1.280,1.280,273.490,274.919,259.040
0.234,23.047,1.318,1.318,273.522,275.024,259.347
0.236,23.353,1.374,1.374,273.542,275.112,259.639
0.237,23.633,1.443,1.443,273.547,275.177,259.911
0.238,23.881,1.520,1.520,273.534,275.215,260.157
0.239,24.097,1.601,1.601,273.501,275.221,260.370
0.240,24.285,1.680,1.680,273.447,275.196,260.548
0.242,24.455,1.755,1.755,273.375,275.144,260.693
0.243,24.616,1.820,1.820,273.289,275.071,260.809
0.244,24.774,1.874,1.874,273.192,274.985,260.898
0.245,24.931,1.917,1.917,273.086,274.890,260.964
0.247,25.084,1.950,1.950,272.977,274.793,261.010
0.248,25.232,1.976,1.976,272.867,274.700,261.039
0.249,25.369,1.993,1.993,272.758,274.616,261.054
0.250,25.491,2.005,2.005,272.656,274.549,261.058
0.252,25.595,2.011,2.011,272.563,274.503,261.054
0.253,25.678,2.013,2.013,272.482,274.486,261.046
0.254,25.746,2.012,2.012,272.418,274.502,261.035
0.255,25.817,2.008,2.008,272.371,274.556,261.026
0.256,25.910,2.002,2.002,272.340,274.642,261.018
0.258,26.027,1.995,1.995,272.323,274.758,261.013
0.259,26.166,1.986,1.986,272.319,274.897,261.011
0.260,26.326,1.977,1.977,272.325,275.057,261.014
0.261,26.501,1.967,1.967,272.339,275.231,261.021
0.263,26.688,1.958,1.958,272.360,275.416,261.035
0.264,26.882,1.949,1.949,272.385,275.608,261.056
0.265,27.078,1.942,1.942,272.413,275.800,261.085
0.266,27.274,1.937,1.937,272.441,275.990,261.122
0.267,27.464,1.934,1.934,272.468,276.172,261.169
0.269,27.644,1.934,1.934,272.491,276.342,261.226
0.270,27.814,1.938,1.938,272.509,276.496,261.294
0.271,27.974,1.947,1.947,272.523,276.635,261.371
0.272,28.125,1.961,1.961,272.533,276.760,261.455
0.274,28.268,1.980,1.980,272.540,276.873,261.544
0.275,28.405,2.003,2.003,272.545,276.973,261.637
0.276,28.535,2.031,2.031,272.547,277.063,261.730
0.277,28.658,2.061,2.061,272.548,277.144,261.823
0.279,28.773,2.091,2.091,272.549,277.217,261.912
0.280,28.880,2.122,2.122,272.550,277.282,261.997
0.281,28.978,2.152,2.152,272.552,277.342,262.075
0.282,29.067,2.178,2.178,272.555,277.398,262.144
0.283,29.145,2.201,2.201,272.560,277.450,262.202
0.285,29.213,2.219,2.219,272.569,277.499,262.248
0.286,29.274,2.233,2.233,272.581,277.547,262.283
0.287,29.331,2.242,2.242,272.597,277.595,262.310
0.288,29.388,2.246,2.246,272.618,277.643,262.331
0.290,29.447,2.245,2.245,272.645,277.693,262.351
0.291,29.512,2.238,2.238,272.678,277.744,262.370
0.292,29.583,2.226,2.226,272.718,277.799,262.393
0.293,29.664,2.209,2.209,272.767,277.857,262.422
0.294,29.757,2.188,2.188,272.824,277.921,262.459
0.296,29.864,2.165,2.165,272.890,277.989,262.507
0.297,29.988,2.144,2.144,272.967,278.064,262.569
0.298,30.132,2.128,2.128,273.054,278.147,262.648
0.299,30.298,2.121,2.121,273.153,278.237,262.746
0.301,30.486,2.126,2.126,273.263,278.335,262.864
0.302,30.692,2.147,2.147,273.381,278.436,262.998
0.303,30.913,2.186,2.186,273.507,278.540,263.147
0.304,31.146,2.246,2.246,273.639,278.644,263.310
0.306,31.389,2.322,2.322,273.775,278.745,263.484
0.307,31.638,2.411,2.411,273.913,278.841,263.667
0.308,31.891,2.507,2.507,274.053,278.930,263.858
0.309,32.145,2.605,2.605,274.192,279.010,264.054
0.310,32.396,2.701,2.701,274.329,279.078,264.254
0.312,32.644,2.790,2.790,274.463,279.131,264.456
0.313,32.886,2.866,2.866,274.591,279.169,264.657
0.314,33.120,2.926,2.926,274.713,279.187,264.857
0.315,33.347,2.971,2.971,274.826,279.188,265.052
0.317,33.565,3.003,3.003,274.933,279.172,265.243
0.318,33.776,3.027,3.027,275.031,279.143,265.427
0.319,33.978,3.044,3.044,275.121,279.103,265.603
0.320,34.170,3.058,3.058,275.203,279.054,265.770
0.321,34.351,3.073,3.073,275.277,278.999,265.926
0.323,34.520,3.091,3.091,275.342,278.941,266.070
0.324,34.674,3.116,3.116,275.399,278.881,266.200
0.325,34.812,3.147,3.147,275.447,278.823,266.315
0.326,34.931,3.183,3.183,275.487,278.768,266.414
0.328,35.031,3.221,3.221,275.518,278.719,266.495
0.329,35.107,3.260,3.260,275.539,278.679,266.556
0.330,35.161,3.298,3.298,275.553,278.649,266.599
0.331,35.196,3.332,3.332,275.560,278.628,266.625
0.333,35.215,3.360,3.360,275.562,278.613,266.638
0.334,35.222,3.381,3.381,275.561,278.606,266.639
0.335,35.229,3.394,3.394,275.559,278.604,266.633
0.336,35.242,3.400,3.400,275.558,278.606,266.621
0.337,35.257,3.401,3.401,275.560,278.612,266.606
0.339,35.275,3.398,3.398,275.566,278.620,266.592
0.340,35.294,3.394,3.394,275.578,278.629,266.580
0.341,35.318,3.389,3.389,275.598,278.638,266.574
0.342,35.349,3.386,3.386,275.629,278.646,266.575
0.344,35.393,3.386,3.386,275.671,278.653,266.588
0.345,35.453,3.390,3.390,275.725,278.656,266.613
0.346,35.528,3.398,3.398,275.790,278.657,266.650
0.347,35.615,3.407,3.407,275.864,278.657,266.696
0.348,35.711,3.416,3.416,275.944,278.655,266.750
0.350,35.815,3.424,3.424,276.028,278.652,266.810
0.351,35.925,3.430,3.430,276.116,278.649,266.876
0.352,36.036,3.432,3.432,276.204,278.645,266.944
0.353,36.148,3.428,3.428,276.290,278.643,267.015
0.355,36.256,3.418,3.418,276.372,278.641,267.086
0.356,36.360,3.403,3.403,276.450,278.641,267.155
0.357,36.456,3.384,3.384,276.519,278.643,267.222
0.358,36.542,3.364,3.364,276.579,278.647,267.284
0.360,36.617,3.345,3.345,276.627,278.654,267.340
0.361,36.682,3.327,3.327,276.666,278.664,267.391
0.362,36.739,3.314,3.314,276.694,278.678,267.438
0.363,36.791,3.307,3.307,276.715,278.696,267.482
0.364,36.839,3.308,3.308,276.728,278.718,267.524
0.366,36.887,3.317,3.317,276.735,278.745,267.563
0.367,36.937,3.332,3.332,276.736,278.776,267.602
0.368,36.991,3.351,3.351,276.734,278.813,267.641
0.369,37.050,3.372,3.372,276.728,278.856,267.680
0.371,37.114,3.395,3.395,276.720,278.905,267.721
0.372,37.185,3.417,3.417,276.711,278.960,267.765
0.373,37.263,3.438,3.438,276.702,279.022,267.812
0.374,37.349,3.454,3.454,276.694,279.091,267.863
0.375,37.443,3.466,3.466,276.687,279.165,267.920
0.377,37.543,3.474,3.474,276.682,279.244,267.981
0.378,37.649,3.478,3.478,276.679,279.326,268.048
0.379,37.760,3.480,3.480,276.678,279.409,268.122
0.380,37.876,3.481,3.481,276.680,279.493,268.202
0.382,37.996,3.480,3.480,276.684,279.575,268.290
0.383,38.121,3.479,3.479,276.691,279.654,268.386
0.384,38.250,3.477,3.477,276.701,279.729,268.491
0.385,38.384,3.477,3.477,276.715,279.798,268.605
0.387,38.523,3.478,3.478,276.732,279.860,268.728
0.388,38.669,3.482,3.482,276.754,279.914,268.861
0.389,38.821,3.487,3.487,276.779,279.958,269.005
0.390,38.981,3.496,3.496,276.808,279.992,269.158
0.391,39.145,3.509,3.509,276.840,280.018,269.318
0.393,39.313,3.527,3.527,276.872,280.036,269.482
0.394,39.482,3.549,3.549,276.905,280.048,269.647
0.395,39.650,3.577,3.577,276.937,280.055,269.811
0.396,39.813,3.609,3.609,276.967,280.058,269.972
0.398,39.970,3.643,3.643,276.994,280.058,270.127
0.399,40.119,3.680,3.680,277.017,280.056,270.273
0.400,40.255,3.717,3.717,277.035,280.053,270.409
0.401,40.378,3.752,3.752,277.046,280.051,270.531
0.402,40.485,3.785,3.785,277.050,280.050,270.637
0.404,40.573,3.814,3.814,277.045,280.051,270.726
0.405,40.645,3.838,3.838,277.032,280.056,270.796
0.406,40.704,3.856,3.856,277.011,280.065,270.851
0.407,40.756,3.869,3.869,276.985,280.077,270.894
0.409,40.804,3.877,3.877,276.954,280.092,270.926
0.410,40.851,3.880,3.880,276.919,280.113,270.952
0.411,40.901,3.878,3.878,276.881,280.137,270.973
0.412,40.953,3.872,3.872,276.842,280.166,270.992
0.413,41.009,3.862,3.862,276.803,280.200,271.012
0.415,41.069,3.848,3.848,276.764,280.239,271.036
0.416,41.133,3.831,3.831,276.728,280.284,271.066
0.417,41.205,3.813,3.813,276.694,280.334,271.105
0.418,41.285,3.794,3.794,276.666,280.389,271.155
0.420,41.376,3.778,3.778,276.641,280.451,271.218
0.421,41.477,3.765,3.765,276.621,280.516,271.291
0.422,41.585,3.758,3.758,276.602,280.585,271.373
0.423,41.699,3.757,3.757,276.586,280.655,271.461
0.425,41.817,3.764,3.764,276.569,280.725,271.555
0.426,41.938,3.780,3.780,276.552,280.794,271.651
0.427,42.058,3.803,3.803,276.533,280.862,271.749
0.428,42.176,3.831,3.831,276.511,280.926,271.846
0.429,42.290,3.860,3.860,276.485,280.985,271.940
0.431,42.399,3.889,3.889,276.454,281.038,272.030
0.432,42.500,3.915,3.915,276.417,281.084,272.113
0.433,42.595,3.936,3.936,276.373,281.121,272.188
0.434,42.684,3.950,3.950,276.322,281.149,272.254
0.436,42.770,3.955,3.955,276.266,281.171,272.316
0.437,42.855,3.953,3.953,276.208,281.189,272.376
0.438,42.943,3.946,3.946,276.150,281.206,272.439
0.439,43.034,3.938,3.938,276.094,281.223,272.509
0.440,43.131,3.930,3.930,276.043,281.243,272.589
0.442,43.237,3.926,3.926,276.000,281.269,272.683
0.443,43.359,3.928,3.928,275.966,281.303,272.795
0.444,43.502,3.939,3.939,275.945,281.348,272.929
0.445,43.672,3.961,3.961,275.939,281.405,273.089
0.447,43.875,3.995,3.995,275.951,281.478,273.278
0.448,44.118,4.041,4.041,275.982,281.569,273.501
0.449,44.403,4.098,4.098,276.034,281.679,273.759
0.450,44.724,4.166,4.166,276.105,281.805,274.046
0.452,45.074,4.245,4.245,276.192,281.944,274.355
0.453,45.444,4.334,4.334,276.291,282.094,274.678
0.454,45.826,4.434,4.434,276.400,282.249,275.010
0.455,46.211,4.544,4.544,276.514,282.408,275.341
0.456,46.591,4.662,4.662,276.631,282.567,275.666
0.458,46.957,4.784,4.784,276.749,282.723,275.976
0.459,47.301,4.907,4.907,276.862,282.871,276.265
0.460,47.615,5.026,5.026,276.969,283.009,276.525
0.461,47.890,5.139,5.139,277.067,283.134,276.749
0.463,48.117,5.241,5.241,277.151,283.242,276.931
0.464,48.290,5.328,5.328,277.220,283.330,277.063
0.465,48.414,5.398,5.398,277.274,283.399,277.151
0.466,48.495,5.448,5.448,277.315,283.450,277.199
0.467,48.543,5.481,5.481,277.344,283.485,277.215
0.469,48.571,5.499,5.499,277.363,283.503,277.205
0.470,48.603,5.506,5.506,277.373,283.508,277.176
0.471,48.647,5.503,5.503,277.376,283.499,277.133
0.472,48.700,5.494,5.494,277.374,283.479,277.083
0.474,48.759,5.481,5.481,277.368,283.448,277.033
0.475,48.819,5.467,5.467,277.360,283.409,276.989
0.476,48.877,5.453,5.453,277.351,283.361,276.957
0.477,48.934,5.441,5.441,277.343,283.307,276.944
0.479,48.995,5.429,5.429,277.338,283.247,276.955
0.480,49.068,5.417,5.417,277.335,283.183,276.990
0.481,49.155,5.405,5.405,277.335,283.116,277.046
0.482,49.256,5.392,5.392,277.337,283.047,277.119
0.483,49.367,5.378,5.378,277.342,282.977,277.205
0.485,49.486,5.363,5.363,277.349,282.907,277.302
0.486,49.610,5.346,5.346,277.358,282.838,277.404
0.487,49.736,5.328,5.328,277.369,282.771,277.510
0.488,49.859,5.310,5.310,277.382,282.707,277.615
0.490,49.977,5.292,5.292,277.396,282.648,277.716
0.491,50.086,5.275,5.275,277.412,282.594,277.809
0.492,50.183,5.260,5.260,277.429,282.546,277.892
0.493,50.264,5.249,5.249,277.447,282.506,277.959
0.494,50.329,5.240,5.240,277.466,282.472,278.013
0.496,50.383,5.236,5.236,277.484,282.444,278.055
0.497,50.428,5.236,5.236,277.502,282.420,278.088
0.498,50.468,5.236,5.236,277.518,282.398,278.117
0.499,50.505,5.236,5.236,277.532,282.376,278.144
0.501,50.543,5.233,5.233,277.542,282.354,278.172
