"T","Distance","Radius","FreeRadius","X","Y","Z"
0.000,0.000,1.154,1.154,276.978,279.247,241.844
0.001,0.007,1.162,1.162,276.986,279.247,241.846
0.003,0.015,1.171,1.171,276.993,279.248,241.847
0.004,0.021,1.178,1.178,276.999,279.249,241.849
0.005,0.028,1.185,1.185,277.004,279.252,241.851
0.006,0.034,1.190,1.190,277.008,279.257,241.852
0.008,0.041,1.194,1.194,277.011,279.264,241.854
0.009,0.051,1.195,1.195,277.011,279.273,241.855
0.010,0.063,1.194,1.194,277.009,279.285,241.857
0.011,0.080,1.191,1.191,277.005,279.301,241.858
0.013,0.101,1.186,1.186,276.997,279.320,241.860
0.014,0.127,1.182,1.182,276.987,279.344,241.861
0.015,0.158,1.179,1.179,276.972,279.373,241.862
0.016,0.196,1.180,1.180,276.955,279.406,241.863
0.018,0.239,1.185,1.185,276.936,279.444,241.864
0.019,0.287,1.197,1.197,276.916,279.488,241.863
0.020,0.340,1.217,1.217,276.897,279.537,241.860
0.021,0.397,1.245,1.245,276.879,279.591,241.856
0.023,0.459,1.282,1.282,276.864,279.651,241.850
0.024,0.526,1.325,1.325,276.853,279.716,241.841
0.025,0.598,1.373,1.373,276.847,279.787,241.829
0.026,0.677,1.423,1.423,276.848,279.864,241.813
0.028,0.762,1.474,1.474,276.856,279.947,241.794
0.029,0.856,1.524,1.524,276.872,280.036,241.770
0.030,0.958,1.571,1.571,276.898,280.131,241.743
0.031,1.068,1.614,1.614,276.932,280.231,241.711
0.033,1.184,1.651,1.651,276.973,280.334,241.676
0.034,1.304,1.683,1.683,277.018,280.438,241.638
0.035,1.427,1.710,1.710,277.067,280.544,241.598
0.036,1.551,1.730,1.730,277.118,280.648,241.556
0.038,1.673,1.746,1.746,277.170,280.751,241.513
0.039,1.793,1.756,1.756,277.221,280.850,241.469
0.040,1.908,1.760,1.760,277.270,280.944,241.425
0.041,2.016,1.758,1.758,277.315,281.032,241.382
0.043,2.115,1.752,1.752,277.355,281.112,241.339
0.044,2.204,1.742,1.742,277.388,281.184,241.298
0.045,2.282,1.731,1.731,277.414,281.246,241.258
0.046,2.351,1.719,1.719,277.432,281.299,241.218
0.048,2.412,1.709,1.709,277.443,281.342,241.176
0.049,2.466,1.702,1.702,277.445,281.374,241.133
0.050,2.519,1.699,1.699,277.438,281.397,241.085
0.051,2.575,1.702,1.702,277.423,281.409,241.033
0.053,2.637,1.711,1.711,277.398,281.411,240.976
0.054,2.711,1.724,1.724,277.364,281.401,240.912
0.055,2.798,1.740,1.740,277.320,281.381,240.840
0.056,2.900,1.756,1.756,277.266,281.350,240.759
0.058,3.020,1.773,1.773,277.201,281.307,240.668
0.059,3.156,1.787,1.787,277.126,281.253,240.567
0.060,3.306,1.798,1.798,277.044,281.191,240.459
0.061,3.466,1.804,1.804,276.955,281.121,240.345
0.063,3.632,1.805,1.805,276.863,281.047,240.228
0.064,3.801,1.800,1.800,276.768,280.970,240.112
0.065,3.968,1.792,1.792,276.675,280.892,239.997
0.066,4.131,1.781,1.781,276.583,280.815,239.886
0.068,4.285,1.767,1.767,276.496,280.742,239.783
0.069,4.426,1.751,1.751,276.416,280.674,239.689
0.070,4.550,1.734,1.734,276.345,280.613,239.606
0.071,4.655,1.716,1.716,276.284,280.562,239.538
0.073,4.737,1.699,1.699,276.236,280.522,239.486
0.074,4.796,1.682,1.682,276.201,280.492,239.449
0.075,4.836,1.667,1.667,276.176,280.472,239.425
0.076,4.859,1.653,1.653,276.160,280.460,239.413
0.078,4.867,1.642,1.642,276.154,280.455,239.410
0.079,4.873,1.634,1.634,276.154,280.456,239.416
0.080,4.887,1.630,1.630,276.161,280.461,239.427
0.081,4.907,1.630,1.630,276.172,280.468,239.442
0.083,4.932,1.634,1.634,276.187,280.478,239.460
0.084,4.959,1.641,1.641,276.204,280.488,239.478
0.085,4.985,1.650,1.650,276.222,280.498,239.494
0.086,5.008,1.660,1.660,276.241,280.505,239.506
0.088,5.028,1.671,1.671,276.257,280.509,239.515
0.089,5.043,1.680,1.680,276.272,280.511,239.518
0.090,5.055,1.688,1.688,276.284,280.509,239.516
0.091,5.067,1.693,1.693,276.292,280.504,239.509
0.093,5.083,1.694,1.694,276.296,280.495,239.496
0.094,5.105,1.693,1.693,276.293,280.482,239.478
0.095,5.136,1.688,1.688,276.285,280.466,239.454
0.096,5.176,1.680,1.680,276.269,280.445,239.423
0.098,5.227,1.670,1.670,276.245,280.420,239.386
0.099,5.289,1.658,1.658,276.212,280.391,239.342
0.100,5.363,1.644,1.644,276.169,280.357,239.292
0.101,5.451,1.628,1.628,276.116,280.318,239.234
0.103,5.548,1.610,1.610,276.054,280.275,239.172
0.104,5.653,1.592,1.592,275.986,280.231,239.106
0.105,5.763,1.574,1.574,275.912,280.186,239.038
0.106,5.873,1.556,1.556,275.837,280.141,238.971
0.108,5.982,1.539,1.539,275.760,280.099,238.906
0.109,6.086,1.524,1.524,275.685,280.060,238.846
0.110,6.182,1.511,1.511,275.614,280.026,238.791
0.111,6.268,1.501,1.501,275.548,279.998,238.744
0.113,6.340,1.494,1.494,275.490,279.978,238.707
0.114,6.396,1.489,1.489,275.441,279.967,238.682
0.115,6.435,1.486,1.486,275.403,279.967,238.670
0.116,6.463,1.484,1.484,275.377,279.975,238.670
0.118,6.487,1.481,1.481,275.360,279.990,238.678
0.119,6.510,1.477,1.477,275.350,280.008,238.690
0.120,6.532,1.471,1.471,275.345,280.025,238.702
0.121,6.549,1.463,1.463,275.343,280.040,238.711
0.123,6.557,1.451,1.451,275.342,280.048,238.711
0.124,6.569,1.436,1.436,275.340,280.047,238.699
0.125,6.601,1.421,1.421,275.335,280.033,238.671
0.126,6.658,1.407,1.407,275.324,280.004,238.622
0.128,6.747,1.395,1.395,275.306,279.956,238.550
0.129,6.872,1.386,1.386,275.279,279.887,238.450
0.130,7.036,1.382,1.382,275.241,279.794,238.320
0.131,7.232,1.385,1.385,275.193,279.682,238.166
0.133,7.453,1.396,1.396,275.137,279.555,237.995
0.134,7.690,1.412,1.412,275.073,279.416,237.813
0.135,7.936,1.432,1.432,275.002,279.272,237.627
0.136,8.183,1.453,1.453,274.926,279.125,237.444
0.138,8.422,1.474,1.474,274.846,278.980,237.270
0.139,8.648,1.492,1.492,274.764,278.842,237.112
0.140,8.852,1.504,1.504,274.679,278.715,236.977
0.141,9.028,1.509,1.509,274.594,278.603,236.871
0.143,9.172,1.505,1.505,274.509,278.511,236.800
0.144,9.284,1.492,1.492,274.426,278.442,236.772
0.145,9.378,1.471,1.471,274.345,278.397,236.784
0.146,9.474,1.444,1.444,274.265,278.371,236.831
0.148,9.584,1.412,1.412,274.187,278.364,236.908
0.149,9.712,1.376,1.376,274.109,278.372,237.009
0.150,9.856,1.337,1.337,274.032,278.392,237.129
0.151,10.013,1.297,1.297,273.954,278.421,237.263
0.153,10.179,1.257,1.257,273.877,278.458,237.405
0.154,10.348,1.218,1.218,273.800,278.499,237.549
0.155,10.515,1.181,1.181,273.721,278.541,237.691
0.156,10.676,1.147,1.147,273.642,278.582,237.825
0.158,10.826,1.117,1.117,273.561,278.619,237.945
0.159,10.962,1.092,1.092,273.479,278.651,238.049
0.160,11.086,1.073,1.073,273.396,278.677,238.137
0.161,11.199,1.061,1.061,273.313,278.699,238.211
0.163,11.303,1.057,1.057,273.230,278.717,238.272
0.164,11.400,1.060,1.060,273.148,278.732,238.321
0.165,11.489,1.070,1.069,273.069,278.744,238.360
0.166,11.573,1.085,1.084,272.991,278.754,238.391
0.168,11.651,1.104,1.103,272.917,278.762,238.413
0.169,11.724,1.126,1.125,272.846,278.769,238.430
0.170,11.792,1.149,1.149,272.779,278.776,238.442
0.171,11.855,1.173,1.173,272.718,278.783,238.450
0.173,11.912,1.197,1.198,272.662,278.791,238.456
0.174,11.964,1.219,1.221,272.611,278.799,238.460
0.175,12.011,1.240,1.243,272.564,278.809,238.464
0.176,12.056,1.259,1.263,272.521,278.819,238.467
0.178,12.098,1.276,1.280,272.481,278.829,238.469
0.179,12.138,1.290,1.294,272.442,278.840,238.472
0.180,12.176,1.301,1.304,272.405,278.851,238.475
0.181,12.215,1.310,1.311,272.369,278.863,238.480
0.183,12.254,1.314,1.313,272.332,278.874,238.486
0.184,12.294,1.315,1.310,272.295,278.886,238.493
0.185,12.336,1.313,1.304,272.256,278.898,238.504
0.186,12.381,1.308,1.296,272.214,278.909,238.517
0.188,12.429,1.300,1.286,272.169,278.921,238.532
0.189,12.481,1.290,1.276,272.121,278.933,238.548
0.190,12.536,1.277,1.266,272.069,278.946,238.561
0.191,12.595,1.262,1.257,272.013,278.960,238.569
0.193,12.659,1.245,1.251,271.951,278.976,238.571
0.194,12.728,1.228,1.247,271.885,278.994,238.565
0.195,12.806,1.210,1.247,271.812,279.015,238.547
0.196,12.894,1.194,1.251,271.732,279.038,238.517
0.198,12.996,1.181,1.259,271.646,279.065,238.471
0.199,13.113,1.173,1.271,271.553,279.096,238.407
0.200,13.248,1.170,1.287,271.451,279.131,238.325
0.201,13.404,1.174,1.309,271.342,279.171,238.221
0.203,13.578,1.187,1.336,271.226,279.214,238.099
0.204,13.765,1.208,1.367,271.107,279.260,237.963
0.205,13.961,1.236,1.401,270.985,279.307,237.816
0.206,14.163,1.268,1.435,270.863,279.356,237.663
0.208,14.366,1.302,1.468,270.743,279.404,237.506
0.209,14.566,1.336,1.496,270.628,279.452,237.350
0.210,14.758,1.368,1.518,270.519,279.497,237.198
0.211,14.939,1.396,1.532,270.418,279.539,237.054
0.213,15.103,1.418,1.535,270.328,279.577,236.922
0.214,15.247,1.432,1.528,270.250,279.610,236.806
0.215,15.366,1.440,1.513,270.187,279.637,236.709
0.216,15.460,1.442,1.492,270.139,279.659,236.631
0.218,15.531,1.441,1.470,270.103,279.676,236.572
0.219,15.581,1.437,1.449,270.079,279.689,236.530
0.220,15.615,1.432,1.432,270.064,279.701,236.502
0.221,15.634,1.426,1.422,270.057,279.711,236.488
0.223,15.644,1.421,1.423,270.056,279.721,236.485
0.224,15.658,1.417,1.436,270.059,279.733,236.493
0.225,15.680,1.416,1.458,270.065,279.746,236.508
0.226,15.709,1.417,1.487,270.072,279.764,236.531
0.228,15.745,1.420,1.520,270.078,279.786,236.558
0.229,15.786,1.425,1.554,270.081,279.814,236.589
0.230,15.833,1.434,1.586,270.080,279.848,236.620
0.231,15.884,1.445,1.614,270.077,279.889,236.650
0.233,15.937,1.460,1.635,270.070,279.936,236.673
0.234,15.992,1.477,1.647,270.062,279.989,236.686
0.235,16.051,1.494,1.649,270.053,280.048,236.685
0.236,16.119,1.509,1.642,270.043,280.112,236.666
0.238,16.199,1.520,1.625,270.034,280.181,236.626
0.239,16.298,1.522,1.598,270.025,280.254,236.560
0.240,16.421,1.515,1.561,270.018,280.332,236.465
0.241,16.574,1.494,1.514,270.014,280.414,236.337
0.243,16.760,1.458,1.457,270.012,280.500,236.172
0.244,16.984,1.405,1.390,270.014,280.590,235.966
0.245,17.242,1.341,1.318,270.018,280.682,235.724
0.246,17.529,1.270,1.246,270.021,280.775,235.453
0.248,17.837,1.200,1.177,270.020,280.869,235.160
0.249,18.160,1.135,1.117,270.013,280.962,234.851
0.250,18.489,1.082,1.070,269.996,281.052,234.535
0.251,18.818,1.047,1.041,269.967,281.139,234.219
0.253,19.142,1.034,1.034,269.923,281.222,233.910
0.254,19.453,1.050,1.054,269.860,281.299,233.614
0.255,19.748,1.091,1.097,269.777,281.369,233.340
0.256,20.022,1.153,1.159,269.670,281.431,233.095
0.258,20.276,1.232,1.238,269.536,281.484,232.886
0.259,20.514,1.324,1.329,269.376,281.528,232.716
0.260,20.742,1.426,1.429,269.196,281.565,232.581
0.261,20.965,1.532,1.534,269.002,281.598,232.476
0.263,21.184,1.639,1.639,268.800,281.631,232.398
0.264,21.398,1.744,1.743,268.597,281.665,232.340
0.265,21.604,1.843,1.841,268.399,281.703,232.299
0.266,21.798,1.935,1.933,268.213,281.749,232.270
0.268,21.976,2.019,2.018,268.044,281.804,232.248
0.269,22.137,2.093,2.092,267.900,281.872,232.229
0.270,22.279,2.156,2.155,267.787,281.956,232.208
0.271,22.410,2.205,2.205,267.710,282.058,232.180
0.273,22.542,2.239,2.239,267.676,282.179,232.142
0.274,22.690,2.257,2.258,267.681,282.319,232.093
0.275,22.857,2.261,2.261,267.717,282.472,232.037
0.276,23.042,2.253,2.253,267.780,282.635,231.975
0.278,23.240,2.236,2.236,267.861,282.804,231.910
0.279,23.445,2.212,2.213,267.954,282.974,231.844
0.280,23.650,2.185,2.186,268.053,283.142,231.779
0.281,23.848,2.158,2.158,268.151,283.302,231.718
0.283,24.032,2.132,2.132,268.242,283.452,231.663
0.284,24.195,2.111,2.111,268.319,283.587,231.616
0.285,24.329,2.095,2.094,268.375,283.704,231.579
0.286,24.429,2.081,2.081,268.403,283.797,231.555
0.288,24.500,2.068,2.068,268.404,283.866,231.542
0.289,24.553,2.056,2.056,268.382,283.914,231.536
0.290,24.600,2.041,2.041,268.345,283.943,231.530
0.291,24.650,2.023,2.023,268.298,283.955,231.520
0.293,24.705,2.000,2.000,268.247,283.953,231.499
0.294,24.767,1.971,1.971,268.198,283.941,231.463
0.295,24.840,1.937,1.937,268.159,283.919,231.406
0.296,24.931,1.899,1.899,268.134,283.892,231.322
0.298,25.050,1.862,1.862,268.131,283.861,231.207
0.299,25.208,1.826,1.826,268.155,283.829,231.054
0.300,25.415,1.796,1.796,268.214,283.799,230.858
0.301,25.676,1.773,1.774,268.309,283.774,230.617
0.303,25.987,1.761,1.761,268.440,283.753,230.336
0.304,26.338,1.761,1.761,268.599,283.737,230.023
0.305,26.719,1.774,1.774,268.781,283.728,229.688
0.306,27.122,1.797,1.797,268.981,283.725,229.338
0.308,27.535,1.830,1.830,269.193,283.729,228.983
0.309,27.950,1.871,1.871,269.411,283.741,228.631
0.310,28.356,1.917,1.917,269.630,283.761,228.290
0.311,28.743,1.967,1.967,269.845,283.790,227.969
0.313,29.102,2.020,2.020,270.049,283.828,227.676
0.314,29.423,2.073,2.073,270.237,283.876,227.420
0.315,29.699,2.125,2.125,270.404,283.934,227.209
0.316,29.928,2.176,2.176,270.547,284.002,227.044
0.318,30.117,2.223,2.223,270.667,284.077,226.917
0.319,30.273,2.267,2.267,270.764,284.155,226.823
0.320,30.402,2.307,2.307,270.838,284.236,226.756
0.321,30.508,2.340,2.340,270.890,284.316,226.710
0.323,30.596,2.367,2.367,270.919,284.392,226.677
0.324,30.672,2.387,2.387,270.926,284.464,226.652
0.325,30.741,2.399,2.399,270.912,284.527,226.629
0.326,30.810,2.404,2.404,270.876,284.579,226.601
0.328,30.889,2.403,2.403,270.819,284.619,226.562
0.329,30.988,2.397,2.397,270.742,284.643,226.505
0.330,31.112,2.387,2.387,270.645,284.650,226.428
0.331,31.261,2.374,2.374,270.531,284.642,226.332
0.333,31.431,2.359,2.359,270.405,284.622,226.221
0.334,31.615,2.342,2.342,270.269,284.591,226.100
0.335,31.811,2.324,2.324,270.128,284.553,225.970
0.336,32.011,2.306,2.306,269.984,284.510,225.838
0.338,32.211,2.287,2.287,269.842,284.464,225.705
0.339,32.405,2.268,2.268,269.704,284.417,225.575
0.340,32.588,2.249,2.249,269.576,284.372,225.454
0.341,32.754,2.229,2.229,269.459,284.331,225.343
0.343,32.898,2.209,2.209,269.358,284.297,225.247
0.344,33.014,2.189,2.189,269.275,284.272,225.169
0.345,33.104,2.170,2.170,269.211,284.255,225.108
0.346,33.173,2.151,2.151,269.163,284.243,225.060
0.348,33.224,2.134,2.134,269.128,284.234,225.024
0.349,33.264,2.118,2.118,269.103,284.225,224.995
0.350,33.296,2.105,2.105,269.085,284.214,224.970
0.351,33.327,2.095,2.095,269.073,284.199,224.947
0.353,33.363,2.088,2.088,269.063,284.176,224.920
0.354,33.409,2.084,2.084,269.053,284.144,224.889
0.355,33.470,2.085,2.085,269.039,284.099,224.849
0.356,33.552,2.090,2.090,269.021,284.040,224.796
0.358,33.657,2.097,2.097,268.993,283.964,224.729
0.359,33.788,2.106,2.106,268.957,283.870,224.645
0.360,33.940,2.116,2.116,268.912,283.762,224.547
0.361,34.108,2.127,2.127,268.862,283.645,224.438
0.363,34.287,2.139,2.139,268.807,283.522,224.320
0.364,34.472,2.149,2.149,268.750,283.398,224.196
0.365,34.657,2.158,2.158,268.692,283.277,224.069
0.366,34.837,2.166,2.166,268.635,283.162,223.941
0.368,35.008,2.174,2.174,268.582,283.059,223.816
0.369,35.165,2.181,2.181,268.533,282.970,223.696
0.370,35.304,2.189,2.189,268.491,282.901,223.583
0.371,35.422,2.197,2.197,268.457,282.855,223.480
0.373,35.517,2.206,2.206,268.434,282.836,223.390
0.374,35.597,2.216,2.216,268.421,282.843,223.311
0.375,35.672,2.227,2.227,268.416,282.873,223.242
0.376,35.752,2.240,2.240,268.421,282.924,223.181
0.378,35.842,2.254,2.254,268.434,282.993,223.125
0.379,35.944,2.268,2.268,268.454,283.078,223.072
0.380,36.058,2.283,2.283,268.481,283.176,223.020
0.381,36.184,2.298,2.298,268.514,283.285,222.967
0.383,36.319,2.313,2.313,268.553,283.402,222.912
0.384,36.462,2.327,2.327,268.596,283.525,222.851
0.385,36.613,2.340,2.340,268.644,283.650,222.783
0.386,36.769,2.354,2.354,268.695,283.777,222.707
0.388,36.931,2.370,2.370,268.750,283.902,222.620
0.389,37.095,2.389,2.389,268.806,284.024,222.526
0.390,37.261,2.412,2.412,268.863,284.142,222.425
0.391,37.425,2.441,2.441,268.920,284.256,222.320
0.393,37.588,2.477,2.477,268.976,284.363,222.212
0.394,37.745,2.521,2.521,269.030,284.463,222.103
0.395,37.896,2.574,2.574,269.081,284.554,221.994
0.396,38.038,2.635,2.635,269.128,284.636,221.888
0.398,38.170,2.700,2.700,269.171,284.706,221.785
0.399,38.289,2.767,2.767,269.208,284.764,221.688
0.400,38.394,2.833,2.833,269.239,284.809,221.598
0.401,38.483,2.895,2.895,269.262,284.840,221.517
0.403,38.562,2.950,2.950,269.281,284.859,221.444
0.404,38.631,2.996,2.996,269.299,284.871,221.378
0.405,38.696,3.030,3.030,269.318,284.879,221.317
0.406,38.757,3.054,3.054,269.342,284.885,221.260
0.408,38.819,3.071,3.071,269.373,284.894,221.208
0.409,38.887,3.086,3.086,269.416,284.908,221.157
0.410,38.966,3.102,3.102,269.472,284.932,221.107
0.411,39.061,3.124,3.124,269.545,284.968,221.058
0.413,39.179,3.154,3.154,269.638,285.020,221.007
0.414,39.326,3.197,3.197,269.755,285.091,220.954
0.415,39.505,3.256,3.256,269.897,285.185,220.897
0.416,39.716,3.330,3.330,270.063,285.301,220.838
0.418,39.953,3.414,3.414,270.248,285.434,220.775
0.419,40.207,3.504,3.504,270.446,285.581,220.710
0.420,40.474,3.597,3.597,270.652,285.737,220.644
0.421,40.745,3.687,3.687,270.860,285.898,220.577
0.423,41.015,3.771,3.771,271.064,286.060,220.510
0.424,41.275,3.844,3.844,271.259,286.219,220.443
0.425,41.520,3.902,3.902,271.440,286.370,220.378
0.426,41.742,3.945,3.945,271.601,286.510,220.315
0.428,41.935,3.976,3.976,271.735,286.635,220.255
0.429,42.093,3.995,3.995,271.839,286.740,220.197
0.430,42.214,4.007,4.007,271.908,286.822,220.144
0.431,42.302,4.012,4.012,271.945,286.883,220.091
0.433,42.371,4.013,4.013,271.952,286.925,220.036
0.434,42.437,4.013,4.013,271.934,286.950,219.978
0.435,42.515,4.013,4.013,271.892,286.960,219.914
0.436,42.611,4.015,4.015,271.830,286.957,219.841
0.438,42.727,4.020,4.020,271.751,286.943,219.756
0.439,42.864,4.029,4.029,271.659,286.921,219.657
0.440,43.021,4.043,4.043,271.556,286.891,219.543
0.441,43.198,4.062,4.062,271.446,286.856,219.409
0.443,43.394,4.086,4.086,271.331,286.819,219.254
0.444,43.610,4.118,4.118,271.215,286.781,219.076
0.445,43.843,4.157,4.157,271.100,286.744,218.877
0.446,44.089,4.202,4.202,270.986,286.710,218.661
0.448,44.342,4.250,4.250,270.876,286.682,218.435
0.449,44.598,4.297,4.297,270.771,286.660,218.202
0.450,44.853,4.339,4.339,270.672,286.647,217.969
0.451,45.101,4.372,4.372,270.580,286.645,217.738
0.453,45.338,4.393,4.393,270.497,286.657,217.517
0.454,45.560,4.398,4.398,270.425,286.683,217.308
0.455,45.764,4.383,4.383,270.363,286.725,217.119
0.456,45.948,4.347,4.347,270.315,286.787,216.952
0.458,46.112,4.297,4.297,270.281,286.869,216.814
0.459,46.262,4.235,4.235,270.262,286.972,216.706
0.460,46.407,4.168,4.168,270.257,287.093,216.626
0.461,46.554,4.100,4.100,270.264,287.229,216.573
0.463,46.706,4.035,4.035,270.282,287.377,216.543
0.464,46.865,3.980,3.980,270.310,287.534,216.533
0.465,47.032,3.938,3.938,270.346,287.696,216.542
0.466,47.204,3.912,3.912,270.389,287.861,216.566
0.468,47.380,3.899,3.899,270.439,288.026,216.603
0.469,47.557,3.896,3.896,270.493,288.187,216.651
0.470,47.731,3.901,3.901,270.550,288.341,216.706
0.471,47.898,3.909,3.909,270.610,288.486,216.767
0.473,48.057,3.918,3.918,270.670,288.618,216.831
0.474,48.206,3.924,3.924,270.730,288.738,216.896
0.475,48.346,3.925,3.925,270.788,288.848,216.960
0.476,48.476,3.919,3.919,270.844,288.948,217.021
0.478,48.596,3.906,3.906,270.895,289.040,217.079
0.479,48.707,3.887,3.887,270.941,289.126,217.132
0.480,48.808,3.863,3.863,270.981,289.207,217.177
0.481,48.899,3.837,3.837,271.013,289.284,217.213
0.483,48.982,3.807,3.807,271.037,289.359,217.239
0.484,49.058,3.777,3.777,271.050,289.434,217.253
0.485,49.133,3.746,3.746,271.053,289.508,217.254
0.486,49.212,3.715,3.715,271.043,289.585,217.239
0.488,49.300,3.685,3.685,271.020,289.665,217.209
0.489,49.399,3.655,3.655,270.985,289.747,217.167
0.490,49.509,3.624,3.624,270.938,289.832,217.116
0.491,49.629,3.592,3.592,270.881,289.920,217.057
0.493,49.759,3.559,3.559,270.812,290.011,216.995
0.494,49.897,3.525,3.525,270.734,290.104,216.931
0.495,50.041,3.488,3.488,270.646,290.200,216.868
0.496,50.192,3.450,3.450,270.549,290.300,216.809
0.498,50.348,3.410,3.410,270.443,290.401,216.757
0.499,50.508,3.371,3.371,270.330,290.506,216.714
0.500,50.672,3.334,3.334,270.210,290.613,216.683
0.501,50.841,3.299,3.299,270.083,290.724,216.666
0.503,51.014,3.269,3.269,269.952,290.837,216.661
0.504,51.190,3.244,3.244,269.821,290.954,216.665
0.505,51.367,3.227,3.227,269.693,291.076,216.676
0.506,51.543,3.217,3.217,269.570,291.202,216.691
0.508,51.718,3.213,3.213,269.456,291.333,216.707
0.509,51.889,3.212,3.212,269.354,291.470,216.721
0.510,52.057,3.213,3.213,269.267,291.614,216.730
