"T","Distance","Radius","FreeRadius","X","Y","Z"
0.000,0.000,0.810,0.810,191.460,167.344,149.254
0.001,0.193,0.907,0.907,191.406,167.211,149.125
0.002,0.384,1.003,1.003,191.352,167.079,148.997
0.003,0.571,1.096,1.096,191.300,166.950,148.874
0.004,0.749,1.184,1.184,191.249,166.823,148.759
0.005,0.919,1.267,1.267,191.200,166.701,148.652
0.006,1.076,1.342,1.342,191.154,166.584,148.557
0.007,1.220,1.408,1.408,191.112,166.473,148.477
0.008,1.348,1.463,1.463,191.074,166.369,148.412
0.009,1.459,1.506,1.506,191.040,166.274,148.366
0.010,1.553,1.536,1.536,191.012,166.188,148.342
0.011,1.632,1.552,1.552,190.989,166.112,148.340
0.013,1.702,1.556,1.556,190.973,166.048,148.364
0.014,1.776,1.549,1.549,190.963,165.996,148.416
0.015,1.864,1.534,1.534,190.960,165.955,148.494
0.016,1.967,1.513,1.513,190.961,165.925,148.593
0.017,2.085,1.487,1.487,190.964,165.902,148.708
0.018,2.214,1.459,1.459,190.969,165.885,148.836
0.019,2.351,1.429,1.429,190.974,165.873,148.972
0.020,2.491,1.400,1.400,190.977,165.864,149.112
0.021,2.630,1.375,1.375,190.977,165.855,149.251
0.022,2.764,1.353,1.353,190.972,165.845,149.384
0.023,2.889,1.335,1.335,190.960,165.833,149.508
0.024,3.002,1.320,1.320,190.941,165.816,149.618
0.025,3.101,1.309,1.309,190.911,165.792,149.709
0.026,3.186,1.303,1.303,190.871,165.761,149.778
0.027,3.265,1.300,1.300,190.819,165.721,149.822
0.028,3.346,1.302,1.302,190.758,165.674,149.846
0.029,3.433,1.307,1.307,190.689,165.621,149.851
0.030,3.527,1.317,1.317,190.615,165.564,149.841
0.031,3.628,1.331,1.331,190.536,165.504,149.820
0.032,3.734,1.348,1.348,190.456,165.443,149.791
0.033,3.840,1.366,1.366,190.375,165.382,149.757
0.034,3.946,1.386,1.386,190.296,165.322,149.720
0.035,4.046,1.406,1.406,190.221,165.266,149.685
0.036,4.138,1.424,1.424,190.151,165.214,149.655
0.038,4.219,1.439,1.439,190.088,165.168,149.632
0.039,4.285,1.450,1.450,190.035,165.130,149.621
0.040,4.337,1.457,1.457,189.992,165.101,149.623
0.041,4.379,1.457,1.457,189.959,165.080,149.637
0.042,4.418,1.450,1.450,189.934,165.067,149.664
0.043,4.460,1.437,1.437,189.915,165.063,149.701
0.044,4.509,1.419,1.419,189.902,165.066,149.749
0.045,4.567,1.396,1.396,189.893,165.077,149.805
0.046,4.634,1.369,1.369,189.886,165.095,149.869
0.047,4.710,1.340,1.340,189.881,165.120,149.940
0.048,4.794,1.308,1.308,189.875,165.152,150.017
0.049,4.884,1.275,1.275,189.869,165.191,150.099
0.050,4.981,1.242,1.242,189.859,165.235,150.185
0.051,5.085,1.209,1.209,189.845,165.286,150.273
0.052,5.193,1.178,1.178,189.826,165.342,150.364
0.053,5.306,1.147,1.147,189.801,165.402,150.457
0.054,5.422,1.119,1.119,189.772,165.462,150.552
0.055,5.541,1.092,1.092,189.740,165.519,150.651
0.056,5.662,1.069,1.069,189.705,165.572,150.754
0.057,5.783,1.048,1.048,189.669,165.615,150.861
0.058,5.905,1.031,1.031,189.632,165.648,150.973
0.059,6.030,1.018,1.018,189.595,165.666,151.091
0.060,6.159,1.010,1.010,189.559,165.668,151.214
0.061,6.295,1.006,1.006,189.525,165.649,151.345
0.063,6.442,1.006,1.006,189.494,165.607,151.483
0.064,6.605,1.011,1.011,189.467,165.539,151.628
0.065,6.788,1.019,1.019,189.444,165.443,151.782
0.066,6.993,1.029,1.029,189.427,165.319,151.944
0.067,7.216,1.043,1.043,189.413,165.171,152.111
0.068,7.453,1.058,1.058,189.404,165.005,152.280
0.069,7.700,1.075,1.075,189.397,164.826,152.450
0.070,7.951,1.092,1.092,189.393,164.639,152.618
0.071,8.202,1.110,1.110,189.390,164.448,152.780
0.072,8.447,1.128,1.128,189.389,164.259,152.936
0.073,8.681,1.146,1.146,189.388,164.077,153.082
0.074,8.899,1.165,1.165,189.388,163.905,153.217
0.075,9.094,1.183,1.183,189.387,163.751,153.336
0.076,9.263,1.202,1.202,189.384,163.617,153.439
0.077,9.398,1.222,1.222,189.380,163.510,153.522
0.078,9.498,1.242,1.242,189.374,163.433,153.585
0.079,9.567,1.263,1.263,189.367,163.381,153.629
0.080,9.608,1.284,1.284,189.359,163.352,153.658
0.081,9.628,1.306,1.306,189.353,163.342,153.674
0.082,9.636,1.329,1.329,189.349,163.347,153.679
0.083,9.653,1.353,1.353,189.349,163.364,153.676
0.084,9.679,1.375,1.375,189.352,163.388,153.669
0.085,9.711,1.397,1.397,189.361,163.417,153.659
0.086,9.745,1.417,1.417,189.377,163.446,153.649
0.088,9.780,1.436,1.436,189.400,163.471,153.643
0.089,9.818,1.452,1.452,189.433,163.490,153.642
0.090,9.861,1.464,1.464,189.475,163.499,153.649
0.091,9.917,1.474,1.474,189.527,163.493,153.667
0.092,9.988,1.479,1.479,189.589,163.474,153.695
0.093,10.072,1.480,1.480,189.659,163.444,153.731
0.094,10.168,1.478,1.478,189.735,163.405,153.775
0.095,10.273,1.473,1.473,189.816,163.358,153.823
0.096,10.384,1.466,1.466,189.899,163.306,153.875
0.097,10.498,1.457,1.457,189.982,163.250,153.928
0.098,10.612,1.446,1.446,190.065,163.192,153.982
0.099,10.724,1.434,1.434,190.145,163.134,154.035
0.100,10.830,1.422,1.422,190.221,163.079,154.084
0.101,10.927,1.410,1.410,190.290,163.028,154.129
0.102,11.012,1.398,1.398,190.351,162.982,154.168
0.103,11.083,1.388,1.388,190.402,162.945,154.199
0.104,11.138,1.378,1.378,190.443,162.916,154.222
0.105,11.179,1.369,1.369,190.474,162.895,154.237
0.106,11.207,1.362,1.362,190.497,162.881,154.247
0.107,11.223,1.357,1.357,190.511,162.873,154.250
0.108,11.230,1.354,1.354,190.517,162.871,154.250
0.109,11.235,1.353,1.353,190.516,162.874,154.246
0.110,11.247,1.355,1.355,190.509,162.882,154.239
0.111,11.266,1.359,1.359,190.496,162.893,154.231
0.113,11.291,1.366,1.366,190.478,162.907,154.222
0.114,11.321,1.375,1.375,190.455,162.923,154.212
0.115,11.354,1.385,1.385,190.428,162.941,154.205
0.116,11.389,1.395,1.395,190.399,162.961,154.199
0.117,11.427,1.406,1.406,190.367,162.980,154.195
0.118,11.464,1.414,1.414,190.334,162.998,154.194
0.119,11.499,1.421,1.421,190.304,163.016,154.194
0.120,11.531,1.426,1.426,190.276,163.030,154.196
0.121,11.556,1.426,1.426,190.254,163.042,154.198
0.122,11.573,1.423,1.423,190.239,163.049,154.201
0.123,11.580,1.416,1.416,190.233,163.052,154.204
0.124,11.586,1.405,1.405,190.238,163.048,154.206
0.125,11.607,1.391,1.391,190.256,163.038,154.207
0.126,11.644,1.375,1.375,190.289,163.020,154.207
0.127,11.700,1.358,1.358,190.338,162.993,154.205
0.128,11.776,1.340,1.340,190.405,162.957,154.201
0.129,11.875,1.321,1.321,190.492,162.911,154.194
0.130,11.993,1.302,1.302,190.597,162.857,154.184
0.131,12.126,1.285,1.285,190.714,162.796,154.172
0.132,12.271,1.269,1.269,190.842,162.730,154.158
0.133,12.423,1.255,1.255,190.976,162.661,154.141
0.134,12.578,1.242,1.242,191.113,162.591,154.122
0.135,12.732,1.231,1.231,191.249,162.522,154.100
0.136,12.881,1.223,1.223,191.381,162.456,154.077
0.138,13.021,1.216,1.216,191.504,162.394,154.052
0.139,13.148,1.212,1.212,191.616,162.339,154.026
0.140,13.258,1.209,1.209,191.712,162.293,153.997
0.141,13.349,1.209,1.209,191.789,162.257,153.968
0.142,13.417,1.212,1.212,191.845,162.233,153.937
0.143,13.465,1.216,1.216,191.879,162.221,153.905
0.144,13.500,1.222,1.222,191.897,162.218,153.875
0.145,13.530,1.228,1.228,191.903,162.224,153.846
0.146,13.557,1.234,1.234,191.902,162.235,153.822
0.147,13.582,1.238,1.238,191.899,162.250,153.802
0.148,13.604,1.239,1.239,191.898,162.267,153.788
0.149,13.623,1.237,1.237,191.903,162.284,153.781
0.150,13.646,1.230,1.230,191.921,162.299,153.784
0.151,13.684,1.218,1.218,191.955,162.309,153.797
0.152,13.744,1.200,1.200,192.010,162.314,153.821
0.153,13.833,1.175,1.175,192.090,162.311,153.858
0.154,13.956,1.148,1.148,192.201,162.297,153.910
0.155,14.114,1.119,1.119,192.343,162.273,153.975
0.156,14.302,1.090,1.090,192.511,162.240,154.053
0.157,14.514,1.065,1.065,192.700,162.199,154.140
0.158,14.743,1.045,1.045,192.903,162.153,154.235
0.159,14.982,1.032,1.032,193.114,162.103,154.336
0.160,15.227,1.028,1.028,193.329,162.050,154.439
0.161,15.469,1.037,1.037,193.542,161.997,154.543
0.163,15.703,1.058,1.058,193.746,161.945,154.645
0.164,15.923,1.092,1.092,193.936,161.896,154.743
0.165,16.121,1.133,1.133,194.107,161.851,154.835
0.166,16.293,1.181,1.181,194.252,161.813,154.918
0.167,16.431,1.230,1.230,194.365,161.783,154.991
0.168,16.532,1.279,1.279,194.444,161.762,155.050
0.169,16.599,1.325,1.325,194.491,161.751,155.097
0.170,16.639,1.364,1.364,194.513,161.748,155.130
0.171,16.661,1.392,1.392,194.515,161.755,155.150
0.172,16.682,1.409,1.409,194.502,161.770,155.157
0.173,16.714,1.410,1.410,194.480,161.793,155.151
0.174,16.759,1.400,1.400,194.454,161.825,155.132
0.175,16.815,1.380,1.380,194.431,161.864,155.099
0.176,16.882,1.353,1.353,194.416,161.910,155.053
0.177,16.961,1.323,1.323,194.415,161.963,154.993
0.178,17.057,1.291,1.291,194.432,162.023,154.921
0.179,17.173,1.262,1.262,194.474,162.089,154.835
0.180,17.316,1.236,1.236,194.546,162.161,154.736
0.181,17.484,1.218,1.218,194.647,162.237,154.625
0.182,17.674,1.210,1.210,194.772,162.316,154.504
0.183,17.882,1.213,1.213,194.916,162.394,154.377
0.184,18.103,1.224,1.224,195.075,162.471,154.244
0.185,18.331,1.243,1.243,195.244,162.543,154.109
0.186,18.562,1.267,1.267,195.419,162.608,153.974
0.188,18.789,1.294,1.294,195.595,162.664,153.840
0.189,19.009,1.323,1.323,195.767,162.709,153.711
0.190,19.216,1.352,1.352,195.931,162.740,153.589
0.191,19.405,1.379,1.379,196.081,162.756,153.476
0.192,19.573,1.401,1.401,196.214,162.754,153.373
0.193,19.716,1.418,1.418,196.325,162.731,153.285
0.194,19.838,1.430,1.430,196.413,162.689,153.210
0.195,19.946,1.438,1.438,196.480,162.632,153.150
0.196,20.044,1.441,1.441,196.531,162.563,153.102
0.197,20.138,1.443,1.443,196.570,162.486,153.065
0.198,20.227,1.442,1.442,196.600,162.406,153.039
0.199,20.311,1.442,1.442,196.624,162.327,153.022
0.200,20.389,1.441,1.441,196.648,162.254,153.014
0.201,20.458,1.442,1.442,196.674,162.189,153.014
0.202,20.519,1.445,1.445,196.707,162.139,153.020
0.203,20.574,1.452,1.452,196.749,162.106,153.031
0.204,20.633,1.460,1.460,196.805,162.094,153.047
0.205,20.711,1.471,1.471,196.878,162.109,153.067
0.206,20.816,1.483,1.483,196.972,162.152,153.089
0.207,20.948,1.496,1.496,197.082,162.221,153.113
0.208,21.103,1.509,1.509,197.206,162.310,153.139
0.209,21.276,1.522,1.522,197.339,162.417,153.165
0.210,21.462,1.533,1.533,197.479,162.536,153.192
0.211,21.655,1.543,1.543,197.621,162.664,153.220
0.213,21.850,1.550,1.550,197.763,162.796,153.246
0.214,22.042,1.555,1.555,197.899,162.929,153.271
0.215,22.225,1.558,1.558,198.028,163.057,153.295
0.216,22.393,1.560,1.560,198.144,163.176,153.316
0.217,22.542,1.560,1.560,198.245,163.284,153.335
0.218,22.665,1.561,1.561,198.327,163.374,153.350
0.219,22.758,1.561,1.561,198.387,163.444,153.362
0.220,22.822,1.563,1.563,198.426,163.494,153.370
0.221,22.861,1.566,1.566,198.449,163.527,153.374
0.222,22.881,1.571,1.571,198.457,163.544,153.375
0.223,22.887,1.578,1.578,198.457,163.550,153.373
0.224,22.896,1.589,1.589,198.450,163.546,153.368
0.225,22.913,1.601,1.601,198.441,163.535,153.360
0.226,22.933,1.615,1.615,198.434,163.519,153.350
0.227,22.955,1.631,1.631,198.432,163.501,153.337
0.228,22.978,1.649,1.649,198.439,163.484,153.322
0.229,23.007,1.667,1.667,198.459,163.470,153.306
0.230,23.048,1.686,1.686,198.495,163.462,153.287
0.231,23.108,1.706,1.706,198.550,163.463,153.267
0.232,23.188,1.726,1.726,198.627,163.472,153.247
0.233,23.286,1.746,1.746,198.722,163.489,153.226
0.234,23.402,1.766,1.766,198.834,163.512,153.208
0.235,23.532,1.786,1.786,198.960,163.541,153.192
0.236,23.674,1.806,1.806,199.098,163.572,153.181
0.238,23.826,1.826,1.826,199.246,163.606,153.175
0.239,23.985,1.846,1.846,199.401,163.641,153.176
0.240,24.149,1.867,1.867,199.562,163.675,153.185
0.241,24.317,1.888,1.888,199.725,163.706,153.203
0.242,24.486,1.909,1.909,199.889,163.735,153.232
0.243,24.656,1.931,1.931,200.052,163.758,153.272
0.244,24.825,1.954,1.954,200.211,163.775,153.326
0.245,24.993,1.978,1.978,200.365,163.785,153.393
0.246,25.160,2.002,2.002,200.513,163.788,153.472
0.247,25.328,2.029,2.029,200.656,163.786,153.560
0.248,25.494,2.057,2.057,200.792,163.778,153.654
0.249,25.659,2.088,2.088,200.924,163.765,153.753
0.250,25.821,2.120,2.120,201.049,163.748,153.854
0.251,25.978,2.156,2.156,201.169,163.728,153.955
0.252,26.131,2.195,2.195,201.283,163.706,154.053
0.253,26.275,2.237,2.237,201.391,163.681,154.147
0.254,26.412,2.282,2.282,201.493,163.656,154.233
0.255,26.538,2.329,2.329,201.590,163.630,154.309
0.256,26.652,2.377,2.377,201.681,163.604,154.373
0.257,26.754,2.424,2.424,201.766,163.579,154.423
0.258,26.845,2.470,2.470,201.846,163.555,154.460
0.259,26.926,2.513,2.513,201.920,163.532,154.485
0.260,27.000,2.553,2.553,201.988,163.510,154.500
0.261,27.067,2.588,2.588,202.052,163.489,154.505
0.263,27.129,2.617,2.617,202.110,163.469,154.503
0.264,27.186,2.639,2.639,202.164,163.450,154.495
0.265,27.239,2.656,2.656,202.212,163.432,154.483
0.266,27.289,2.667,2.667,202.256,163.415,154.467
0.267,27.335,2.673,2.673,202.296,163.399,154.450
0.268,27.376,2.676,2.676,202.331,163.384,154.433
0.269,27.414,2.676,2.676,202.361,163.370,154.417
0.270,27.446,2.675,2.675,202.388,163.358,154.404
0.271,27.473,2.672,2.672,202.411,163.346,154.394
0.272,27.496,2.670,2.670,202.430,163.336,154.387
0.273,27.514,2.668,2.668,202.445,163.327,154.383
0.274,27.528,2.668,2.668,202.457,163.320,154.381
0.275,27.537,2.669,2.669,202.465,163.315,154.381
0.276,27.543,2.671,2.671,202.469,163.312,154.382
0.277,27.546,2.673,2.673,202.471,163.310,154.383
0.278,27.549,2.676,2.676,202.469,163.311,154.385
0.279,27.555,2.678,2.678,202.463,163.314,154.388
0.280,27.565,2.679,2.679,202.455,163.320,154.390
0.281,27.579,2.680,2.680,202.444,163.328,154.391
0.282,27.597,2.679,2.679,202.430,163.339,154.391
0.283,27.618,2.677,2.677,202.414,163.352,154.389
0.284,27.640,2.673,2.673,202.399,163.367,154.386
0.285,27.660,2.669,2.669,202.385,163.382,154.382
0.286,27.677,2.664,2.664,202.377,163.396,154.377
0.288,27.690,2.661,2.661,202.375,163.408,154.372
0.289,27.703,2.660,2.660,202.384,163.415,154.366
0.290,27.724,2.661,2.661,202.403,163.419,154.359
0.291,27.759,2.667,2.667,202.437,163.416,154.353
0.292,27.811,2.676,2.676,202.488,163.405,154.346
0.293,27.883,2.691,2.691,202.557,163.386,154.339
0.294,27.978,2.713,2.713,202.648,163.358,154.333
0.295,28.099,2.740,2.740,202.762,163.318,154.328
0.296,28.247,2.772,2.772,202.900,163.266,154.323
0.297,28.419,2.808,2.808,203.061,163.203,154.319
0.298,28.612,2.849,2.849,203.239,163.130,154.317
0.299,28.819,2.892,2.892,203.430,163.049,154.316
0.300,29.038,2.938,2.938,203.630,162.960,154.318
0.301,29.263,2.986,2.986,203.833,162.865,154.322
0.302,29.489,3.034,3.034,204.036,162.765,154.329
0.303,29.713,3.083,3.083,204.234,162.661,154.340
0.304,29.930,3.132,3.132,204.423,162.555,154.354
0.305,30.136,3.180,3.180,204.598,162.448,154.372
0.306,30.327,3.227,3.227,204.755,162.341,154.395
0.307,30.500,3.271,3.271,204.889,162.235,154.422
0.308,30.652,3.313,3.313,204.995,162.132,154.455
0.309,30.785,3.352,3.352,205.075,162.032,154.492
0.310,30.903,3.388,3.388,205.131,161.935,154.533
0.311,31.012,3.419,3.419,205.164,161.842,154.577
0.313,31.113,3.445,3.445,205.179,161.753,154.622
0.314,31.211,3.466,3.466,205.178,161.667,154.669
0.315,31.306,3.482,3.482,205.164,161.586,154.716
0.316,31.399,3.493,3.493,205.140,161.508,154.763
0.317,31.491,3.500,3.500,205.108,161.435,154.807
0.318,31.579,3.504,3.504,205.072,161.367,154.849
0.319,31.663,3.506,3.506,205.033,161.302,154.888
0.320,31.742,3.505,3.505,204.996,161.243,154.922
0.321,31.812,3.504,3.504,204.962,161.188,154.951
0.322,31.873,3.503,3.503,204.935,161.138,154.974
0.323,31.927,3.502,3.502,204.914,161.094,154.994
0.324,31.972,3.502,3.502,204.901,161.053,155.011
0.325,32.011,3.504,3.504,204.896,161.018,155.026
0.326,32.046,3.507,3.507,204.902,160.987,155.042
0.327,32.082,3.513,3.513,204.917,160.960,155.060
0.328,32.123,3.522,3.522,204.944,160.938,155.081
0.329,32.173,3.534,3.534,204.983,160.920,155.106
0.330,32.235,3.550,3.550,205.035,160.906,155.138
0.331,32.312,3.569,3.569,205.101,160.896,155.177
0.332,32.406,3.593,3.593,205.182,160.890,155.225
0.333,32.519,3.621,3.621,205.278,160.888,155.283
0.334,32.651,3.654,3.654,205.391,160.890,155.353
0.335,32.800,3.691,3.691,205.516,160.894,155.432
0.336,32.961,3.730,3.730,205.652,160.901,155.518
0.338,33.130,3.771,3.771,205.795,160.910,155.608
0.339,33.304,3.811,3.811,205.943,160.919,155.700
0.340,33.479,3.849,3.849,206.090,160.929,155.792
0.341,33.649,3.885,3.885,206.236,160.938,155.881
0.342,33.813,3.917,3.917,206.376,160.945,155.965
0.343,33.964,3.943,3.943,206.508,160.951,156.040
0.344,34.101,3.962,3.962,206.627,160.954,156.105
0.345,34.218,3.975,3.975,206.732,160.954,156.158
0.346,34.313,3.981,3.981,206.819,160.950,156.195
0.347,34.382,3.981,3.981,206.885,160.941,156.214
0.348,34.430,3.978,3.978,206.931,160.928,156.218
0.349,34.463,3.971,3.971,206.959,160.912,156.211
0.350,34.489,3.963,3.963,206.972,160.894,156.196
0.351,34.515,3.953,3.953,206.973,160.876,156.178
0.352,34.540,3.944,3.944,206.965,160.859,156.161
0.353,34.564,3.935,3.935,206.951,160.844,156.149
0.354,34.586,3.929,3.929,206.932,160.833,156.146
0.355,34.610,3.925,3.925,206.912,160.827,156.157
0.356,34.643,3.923,3.923,206.894,160.826,156.185
0.357,34.696,3.923,3.923,206.880,160.833,156.235
0.358,34.773,3.923,3.923,206.873,160.848,156.311
0.359,34.882,3.924,3.924,206.876,160.874,156.416
0.360,35.023,3.925,3.925,206.890,160.909,156.553
0.361,35.194,3.926,3.926,206.915,160.952,156.716
0.363,35.388,3.927,3.927,206.949,161.001,156.901
0.364,35.603,3.926,3.926,206.993,161.054,157.104
0.365,35.833,3.924,3.924,207.046,161.109,157.321
0.366,36.073,3.920,3.920,207.106,161.165,157.547
0.367,36.320,3.916,3.916,207.175,161.218,157.778
0.368,36.569,3.910,3.910,207.250,161.269,158.009
0.369,36.815,3.905,3.905,207.331,161.313,158.237
0.370,37.054,3.899,3.899,207.419,161.350,158.457
0.371,37.283,3.893,3.893,207.511,161.378,158.664
0.372,37.497,3.888,3.888,207.607,161.394,158.855
0.373,37.696,3.884,3.884,207.708,161.398,159.027
0.374,37.881,3.881,3.881,207.812,161.390,159.180
0.375,38.057,3.880,3.880,207.920,161.372,159.317
0.376,38.225,3.880,3.880,208.031,161.345,159.441
0.377,38.389,3.883,3.883,208.146,161.312,159.553
0.378,38.551,3.888,3.888,208.264,161.273,159.657
0.379,38.712,3.896,3.896,208.385,161.230,159.754
0.380,38.873,3.907,3.907,208.509,161.185,159.847
0.381,39.036,3.921,3.921,208.635,161.139,159.938
0.382,39.201,3.940,3.940,208.765,161.093,160.029
0.383,39.368,3.962,3.962,208.897,161.050,160.124
0.384,39.540,3.989,3.989,209.031,161.011,160.223
0.385,39.717,4.020,4.020,209.167,160.976,160.329
0.386,39.897,4.054,4.054,209.305,160.947,160.443
0.388,40.081,4.090,4.090,209.444,160.924,160.560
0.389,40.265,4.125,4.125,209.582,160.907,160.682
0.390,40.449,4.160,4.160,209.718,160.895,160.804
0.391,40.630,4.192,4.192,209.851,160.889,160.926
0.392,40.807,4.220,4.220,209.981,160.889,161.046
0.393,40.977,4.244,4.244,210.107,160.894,161.163
0.394,41.141,4.261,4.261,210.226,160.906,161.273
0.395,41.295,4.271,4.271,210.339,160.924,161.377
0.396,41.438,4.274,4.274,210.444,160.947,161.471
0.397,41.568,4.272,4.272,210.540,160.977,161.554
0.398,41.686,4.266,4.266,210.626,161.013,161.626
0.399,41.790,4.258,4.258,210.702,161.054,161.684
0.400,41.884,4.248,4.248,210.769,161.100,161.731
0.401,41.968,4.239,4.239,210.827,161.149,161.767
0.402,42.046,4.231,4.231,210.877,161.201,161.795
0.403,42.117,4.226,4.226,210.920,161.255,161.815
0.404,42.184,4.225,4.225,210.956,161.309,161.828
0.405,42.246,4.230,4.230,210.987,161.362,161.837
0.406,42.304,4.239,4.239,211.012,161.414,161.842
0.407,42.358,4.251,4.251,211.033,161.464,161.845
0.408,42.407,4.266,4.266,211.050,161.509,161.847
0.409,42.450,4.282,4.282,211.064,161.551,161.849
0.410,42.488,4.299,4.299,211.076,161.586,161.852
0.411,42.519,4.316,4.316,211.086,161.615,161.858
0.413,42.545,4.330,4.330,211.095,161.638,161.866
0.414,42.566,4.343,4.343,211.102,161.656,161.874
0.415,42.583,4.351,4.351,211.108,161.669,161.884
0.416,42.596,4.356,4.356,211.113,161.677,161.893
0.417,42.606,4.358,4.358,211.117,161.682,161.900
0.418,42.613,4.357,4.357,211.120,161.684,161.906
0.419,42.617,4.354,4.354,211.123,161.683,161.910
0.420,42.622,4.349,4.349,211.126,161.680,161.910
0.421,42.628,4.344,4.344,211.128,161.675,161.906
0.422,42.639,4.337,4.337,211.131,161.669,161.897
0.423,42.654,4.331,4.331,211.134,161.663,161.883
0.424,42.676,4.325,4.325,211.137,161.658,161.863
