"T","Distance","Radius","FreeRadius","X","Y","Z"
0.000,0.000,0.810,0.810,191.460,167.344,149.254
0.001,0.218,0.922,0.922,191.399,167.194,149.108
0.002,0.432,1.033,1.033,191.339,167.046,148.966
0.003,0.639,1.139,1.139,191.280,166.901,148.830
0.004,0.836,1.239,1.239,191.224,166.761,148.704
0.006,1.020,1.330,1.330,191.171,166.626,148.591
0.007,1.186,1.410,1.410,191.122,166.499,148.495
0.008,1.334,1.478,1.478,191.078,166.381,148.419
0.009,1.460,1.531,1.531,191.040,166.273,148.366
0.010,1.564,1.566,1.566,191.008,166.177,148.340
0.011,1.650,1.583,1.583,190.984,166.094,148.344
0.012,1.729,1.583,1.583,190.968,166.026,148.381
0.013,1.819,1.568,1.568,190.961,165.974,148.453
0.014,1.928,1.543,1.543,190.960,165.935,148.555
0.015,2.056,1.511,1.511,190.963,165.907,148.680
0.017,2.200,1.473,1.473,190.969,165.887,148.822
0.018,2.353,1.434,1.434,190.974,165.873,148.975
0.019,2.511,1.397,1.397,190.978,165.862,149.133
0.020,2.667,1.364,1.364,190.976,165.853,149.288
0.021,2.815,1.339,1.339,190.968,165.841,149.435
0.022,2.950,1.322,1.322,190.951,165.825,149.568
0.023,3.067,1.312,1.312,190.923,165.801,149.680
0.024,3.168,1.308,1.308,190.881,165.769,149.765
0.025,3.257,1.310,1.310,190.825,165.725,149.819
0.026,3.348,1.317,1.317,190.756,165.672,149.846
0.028,3.446,1.327,1.327,190.678,165.612,149.850
0.029,3.554,1.340,1.340,190.593,165.547,149.836
0.030,3.670,1.355,1.355,190.503,165.479,149.809
0.031,3.790,1.371,1.371,190.412,165.410,149.773
0.032,3.910,1.387,1.387,190.322,165.342,149.732
0.033,4.024,1.402,1.402,190.236,165.277,149.692
0.034,4.130,1.415,1.415,190.157,165.218,149.657
0.035,4.221,1.426,1.426,190.086,165.167,149.632
0.036,4.294,1.432,1.432,190.027,165.125,149.620
0.037,4.349,1.433,1.433,189.982,165.094,149.626
0.039,4.395,1.429,1.429,189.947,165.074,149.647
0.040,4.439,1.417,1.417,189.923,165.064,149.683
0.041,4.491,1.398,1.398,189.906,165.064,149.732
0.042,4.554,1.371,1.371,189.894,165.074,149.793
0.043,4.628,1.338,1.338,189.887,165.093,149.864
0.044,4.713,1.300,1.300,189.881,165.122,149.944
0.045,4.808,1.262,1.262,189.874,165.159,150.031
0.046,4.912,1.223,1.223,189.866,165.204,150.125
0.047,5.024,1.186,1.186,189.854,165.256,150.223
0.049,5.143,1.153,1.153,189.835,165.317,150.324
0.050,5.268,1.126,1.126,189.809,165.383,150.427
0.051,5.399,1.107,1.107,189.778,165.450,150.534
0.052,5.532,1.097,1.097,189.742,165.516,150.645
0.053,5.668,1.096,1.096,189.703,165.575,150.760
0.054,5.804,1.102,1.102,189.662,165.622,150.882
0.055,5.943,1.115,1.115,189.620,165.655,151.009
0.056,6.085,1.134,1.134,189.579,165.669,151.144
0.057,6.233,1.157,1.157,189.539,165.660,151.287
0.058,6.394,1.185,1.185,189.503,165.623,151.440
0.060,6.573,1.215,1.215,189.472,165.554,151.601
0.061,6.776,1.248,1.248,189.445,165.449,151.774
0.062,7.007,1.283,1.283,189.426,165.309,151.956
0.063,7.260,1.317,1.317,189.411,165.140,152.144
0.064,7.531,1.351,1.351,189.401,164.949,152.335
0.065,7.812,1.383,1.383,189.395,164.743,152.526
0.066,8.095,1.412,1.412,189.391,164.529,152.712
0.067,8.374,1.438,1.438,189.389,164.315,152.891
0.068,8.641,1.459,1.459,189.389,164.107,153.058
0.069,8.888,1.474,1.474,189.388,163.913,153.211
0.071,9.108,1.483,1.483,189.387,163.739,153.345
0.072,9.292,1.485,1.485,189.384,163.593,153.458
0.073,9.434,1.480,1.480,189.378,163.481,153.545
0.074,9.532,1.470,1.470,189.371,163.406,153.608
0.075,9.593,1.456,1.456,189.362,163.361,153.648
0.076,9.623,1.440,1.440,189.355,163.343,153.670
0.077,9.633,1.424,1.424,189.350,163.345,153.679
0.078,9.650,1.408,1.408,189.348,163.363,153.677
0.079,9.680,1.395,1.395,189.353,163.391,153.668
0.080,9.716,1.386,1.386,189.364,163.423,153.657
0.082,9.755,1.381,1.381,189.384,163.455,153.647
0.083,9.795,1.382,1.382,189.414,163.481,153.641
0.084,9.840,1.386,1.386,189.456,163.497,153.645
0.085,9.898,1.393,1.393,189.512,163.496,153.661
0.086,9.974,1.401,1.401,189.579,163.478,153.690
0.087,10.068,1.409,1.409,189.658,163.445,153.730
0.088,10.176,1.417,1.417,189.744,163.400,153.779
0.089,10.296,1.423,1.423,189.835,163.347,153.834
0.090,10.422,1.426,1.426,189.929,163.286,153.894
0.092,10.551,1.424,1.424,190.023,163.222,153.954
0.093,10.678,1.418,1.418,190.114,163.157,154.014
0.094,10.800,1.410,1.410,190.201,163.093,154.072
0.095,10.912,1.399,1.399,190.280,163.035,154.123
0.096,11.009,1.387,1.387,190.350,162.983,154.168
0.097,11.087,1.375,1.375,190.407,162.941,154.202
0.098,11.147,1.363,1.363,190.451,162.910,154.226
0.099,11.188,1.354,1.354,190.483,162.889,154.241
0.100,11.214,1.348,1.348,190.504,162.876,154.249
0.101,11.226,1.346,1.346,190.515,162.871,154.251
0.103,11.230,1.347,1.347,190.517,162.873,154.247
0.104,11.242,1.353,1.353,190.510,162.880,154.240
0.105,11.263,1.361,1.361,190.496,162.893,154.231
0.106,11.292,1.372,1.372,190.475,162.909,154.220
0.107,11.326,1.383,1.383,190.449,162.928,154.210
0.108,11.364,1.395,1.395,190.418,162.949,154.202
0.109,11.405,1.407,1.407,190.383,162.970,154.197
0.110,11.448,1.419,1.419,190.346,162.992,154.194
0.111,11.488,1.428,1.428,190.311,163.012,154.194
0.112,11.524,1.435,1.435,190.279,163.029,154.196
0.114,11.553,1.440,1.440,190.254,163.042,154.198
0.115,11.571,1.442,1.442,190.238,163.050,154.202
0.116,11.577,1.440,1.440,190.233,163.051,154.205
0.117,11.589,1.436,1.436,190.244,163.045,154.207
0.118,11.620,1.429,1.429,190.271,163.029,154.208
0.119,11.674,1.417,1.417,190.318,163.004,154.206
0.120,11.753,1.403,1.403,190.388,162.966,154.202
0.121,11.860,1.384,1.384,190.482,162.917,154.195
0.122,11.992,1.361,1.361,190.599,162.856,154.184
0.123,12.143,1.335,1.335,190.732,162.786,154.170
0.125,12.308,1.308,1.308,190.878,162.711,154.153
0.126,12.481,1.281,1.281,191.031,162.633,154.133
0.127,12.655,1.254,1.254,191.185,162.555,154.111
0.128,12.826,1.230,1.230,191.335,162.478,154.086
0.129,12.987,1.209,1.209,191.477,162.407,154.058
0.130,13.133,1.194,1.194,191.605,162.344,154.028
0.131,13.258,1.184,1.184,191.714,162.292,153.997
0.132,13.357,1.181,1.181,191.799,162.252,153.963
0.133,13.428,1.184,1.184,191.856,162.228,153.928
0.135,13.477,1.191,1.191,191.888,162.219,153.893
0.136,13.513,1.200,1.200,191.901,162.220,153.859
0.137,13.544,1.209,1.209,191.903,162.231,153.830
0.138,13.573,1.216,1.216,191.899,162.247,153.805
0.139,13.599,1.220,1.220,191.897,162.266,153.789
0.140,13.620,1.217,1.217,191.904,162.285,153.781
0.141,13.647,1.208,1.208,191.925,162.301,153.785
0.142,13.695,1.189,1.189,191.969,162.312,153.803
0.143,13.774,1.163,1.163,192.040,162.314,153.835
0.144,13.891,1.131,1.131,192.146,162.305,153.884
0.146,14.054,1.098,1.098,192.293,162.282,153.952
0.147,14.258,1.067,1.067,192.475,162.248,154.036
0.148,14.493,1.039,1.039,192.684,162.203,154.133
0.149,14.750,1.019,1.019,192.913,162.151,154.240
0.150,15.021,1.009,1.009,193.152,162.094,154.353
0.151,15.296,1.013,1.013,193.394,162.034,154.470
0.152,15.567,1.032,1.032,193.630,161.974,154.586
0.153,15.823,1.066,1.066,193.853,161.917,154.700
0.154,16.057,1.112,1.112,194.055,161.865,154.806
0.155,16.258,1.165,1.165,194.226,161.820,154.903
0.157,16.419,1.221,1.221,194.359,161.784,154.986
0.158,16.533,1.276,1.276,194.448,161.761,155.053
0.159,16.605,1.327,1.327,194.497,161.749,155.104
0.160,16.643,1.370,1.370,194.515,161.749,155.138
0.161,16.664,1.400,1.400,194.510,161.761,155.155
0.162,16.694,1.413,1.413,194.490,161.782,155.156
0.163,16.740,1.410,1.410,194.462,161.814,155.139
0.164,16.799,1.392,1.392,194.435,161.856,155.106
0.165,16.873,1.364,1.364,194.417,161.907,155.056
0.166,16.963,1.329,1.329,194.415,161.967,154.989
0.168,17.073,1.291,1.291,194.438,162.035,154.905
0.169,17.212,1.253,1.253,194.494,162.111,154.804
0.170,17.383,1.218,1.218,194.588,162.195,154.687
0.171,17.586,1.189,1.189,194.716,162.282,154.556
0.172,17.814,1.172,1.172,194.871,162.371,154.415
0.173,18.059,1.166,1.166,195.047,162.458,154.267
0.174,18.316,1.171,1.171,195.236,162.539,154.115
0.175,18.575,1.185,1.185,195.433,162.612,153.963
0.176,18.830,1.207,1.207,195.631,162.674,153.814
0.178,19.074,1.233,1.233,195.823,162.721,153.670
0.179,19.300,1.264,1.264,196.002,162.749,153.536
0.180,19.501,1.297,1.297,196.162,162.757,153.414
0.181,19.672,1.330,1.330,196.296,162.740,153.309
0.182,19.815,1.361,1.361,196.400,162.697,153.222
0.183,19.937,1.390,1.390,196.478,162.634,153.152
0.184,20.048,1.416,1.416,196.535,162.556,153.098
0.185,20.152,1.439,1.439,196.577,162.469,153.058
0.186,20.251,1.460,1.460,196.608,162.379,153.032
0.187,20.343,1.479,1.479,196.635,162.292,153.017
0.189,20.426,1.496,1.496,196.663,162.214,153.013
0.190,20.498,1.511,1.511,196.697,162.151,153.017
0.191,20.560,1.524,1.524,196.742,162.109,153.029
0.192,20.626,1.537,1.537,196.803,162.094,153.047
0.193,20.714,1.548,1.548,196.887,162.112,153.069
0.194,20.838,1.559,1.559,196.995,162.166,153.094
0.195,20.995,1.568,1.568,197.124,162.250,153.122
0.196,21.178,1.576,1.576,197.269,162.360,153.151
0.197,21.381,1.583,1.583,197.423,162.488,153.182
0.198,21.597,1.589,1.589,197.583,162.629,153.212
0.200,21.817,1.593,1.593,197.743,162.777,153.242
0.201,22.033,1.596,1.596,197.897,162.927,153.271
0.202,22.239,1.598,1.598,198.041,163.070,153.297
0.203,22.425,1.598,1.598,198.170,163.203,153.321
0.204,22.584,1.597,1.597,198.277,163.319,153.341
0.205,22.708,1.595,1.595,198.359,163.411,153.356
0.206,22.795,1.594,1.594,198.413,163.477,153.367
0.207,22.848,1.592,1.592,198.444,163.520,153.373
0.208,22.874,1.592,1.592,198.457,163.543,153.375
0.209,22.881,1.593,1.593,198.457,163.550,153.373
0.211,22.892,1.596,1.596,198.449,163.545,153.367
0.212,22.912,1.601,1.601,198.439,163.531,153.358
0.213,22.935,1.609,1.609,198.433,163.512,153.345
0.214,22.960,1.621,1.621,198.434,163.492,153.330
0.215,22.989,1.634,1.634,198.450,163.475,153.312
0.216,23.031,1.649,1.649,198.484,163.464,153.292
0.217,23.093,1.666,1.666,198.542,163.462,153.270
0.218,23.182,1.684,1.684,198.627,163.472,153.246
0.219,23.295,1.702,1.702,198.736,163.492,153.224
0.221,23.428,1.720,1.720,198.865,163.519,153.203
0.222,23.580,1.737,1.737,199.012,163.553,153.187
0.223,23.745,1.754,1.754,199.172,163.590,153.177
0.224,23.921,1.769,1.769,199.344,163.628,153.175
0.225,24.104,1.785,1.785,199.523,163.667,153.182
0.226,24.292,1.802,1.802,199.707,163.703,153.200
0.227,24.483,1.820,1.820,199.892,163.735,153.232
0.228,24.674,1.842,1.842,200.075,163.761,153.279
0.229,24.863,1.868,1.868,200.253,163.778,153.343
0.230,25.052,1.899,1.899,200.424,163.787,153.423
0.232,25.241,1.936,1.936,200.588,163.787,153.517
0.233,25.429,1.980,1.980,200.744,163.780,153.620
0.234,25.615,2.030,2.030,200.894,163.767,153.731
0.235,25.798,2.087,2.087,201.036,163.749,153.844
0.236,25.976,2.147,2.147,201.171,163.727,153.958
0.237,26.146,2.210,2.210,201.299,163.701,154.068
0.238,26.308,2.273,2.273,201.419,163.674,154.171
0.239,26.457,2.335,2.335,201.533,163.645,154.265
0.240,26.593,2.396,2.396,201.639,163.616,154.345
0.241,26.714,2.451,2.452,201.738,163.588,154.408
0.243,26.820,2.502,2.502,201.830,163.561,154.453
0.244,26.913,2.545,2.545,201.914,163.536,154.483
0.245,26.997,2.582,2.582,201.992,163.511,154.500
0.246,27.072,2.613,2.613,202.063,163.489,154.505
0.247,27.140,2.638,2.638,202.128,163.467,154.501
0.248,27.203,2.659,2.659,202.187,163.446,154.490
0.249,27.261,2.674,2.674,202.239,163.426,154.474
0.250,27.314,2.686,2.686,202.285,163.407,154.455
0.251,27.362,2.694,2.694,202.325,163.390,154.436
0.252,27.405,2.699,2.699,202.360,163.372,154.418
0.254,27.441,2.701,2.701,202.389,163.356,154.404
0.255,27.471,2.701,2.701,202.412,163.341,154.393
0.256,27.495,2.698,2.699,202.431,163.327,154.387
0.257,27.514,2.695,2.695,202.445,163.315,154.383
0.258,27.528,2.689,2.690,202.455,163.305,154.382
0.259,27.536,2.683,2.683,202.460,163.299,154.383
0.260,27.540,2.676,2.676,202.462,163.296,154.385
0.261,27.543,2.668,2.668,202.461,163.297,154.387
0.262,27.551,2.660,2.660,202.456,163.302,154.390
0.264,27.563,2.652,2.652,202.448,163.312,154.391
0.265,27.582,2.645,2.645,202.439,163.328,154.391
0.266,27.607,2.638,2.637,202.427,163.349,154.389
0.267,27.636,2.631,2.630,202.414,163.375,154.386
0.268,27.666,2.625,2.624,202.404,163.403,154.380
0.269,27.693,2.620,2.619,202.399,163.429,154.373
0.270,27.717,2.616,2.615,202.401,163.452,154.366
0.271,27.738,2.613,2.612,202.414,163.467,154.358
0.272,27.766,2.611,2.611,202.440,163.472,154.350
0.273,27.809,2.610,2.611,202.482,163.465,154.343
0.275,27.874,2.612,2.613,202.543,163.443,154.337
0.276,27.965,2.616,2.619,202.624,163.402,154.332
0.277,28.088,2.625,2.628,202.730,163.340,154.328
0.278,28.245,2.638,2.643,202.862,163.255,154.327
0.279,28.434,2.658,2.663,203.018,163.149,154.327
0.280,28.650,2.685,2.690,203.196,163.027,154.330
0.281,28.884,2.721,2.724,203.390,162.896,154.336
0.282,29.131,2.765,2.767,203.598,162.761,154.343
0.283,29.385,2.820,2.819,203.813,162.628,154.352
0.284,29.639,2.885,2.880,204.034,162.503,154.363
0.286,29.887,2.957,2.948,204.255,162.392,154.377
0.287,30.124,3.034,3.021,204.473,162.300,154.392
0.288,30.345,3.113,3.098,204.684,162.234,154.409
0.289,30.548,3.192,3.175,204.883,162.198,154.429
0.290,30.733,3.269,3.253,205.067,162.199,154.450
0.291,30.907,3.341,3.328,205.235,162.234,154.473
0.292,31.075,3.405,3.399,205.389,162.298,154.497
0.293,31.243,3.460,3.463,205.529,162.387,154.522
0.294,31.412,3.504,3.521,205.657,162.493,154.549
0.295,31.581,3.539,3.572,205.774,162.613,154.576
0.297,31.750,3.566,3.618,205.881,162.740,154.604
0.298,31.915,3.587,3.659,205.980,162.870,154.632
0.299,32.074,3.604,3.695,206.070,162.997,154.660
0.300,32.222,3.619,3.728,206.154,163.115,154.688
0.301,32.356,3.632,3.759,206.233,163.220,154.715
0.302,32.473,3.646,3.788,206.308,163.307,154.742
0.303,32.575,3.662,3.815,206.378,163.375,154.768
0.304,32.663,3.682,3.842,206.444,163.428,154.793
0.305,32.739,3.704,3.868,206.506,163.467,154.816
0.307,32.806,3.727,3.892,206.563,163.495,154.836
0.308,32.864,3.750,3.915,206.615,163.514,154.855
0.309,32.915,3.773,3.936,206.662,163.526,154.870
0.310,32.959,3.794,3.955,206.703,163.534,154.883
0.311,32.997,3.812,3.970,206.739,163.540,154.892
0.312,33.028,3.825,3.983,206.769,163.547,154.897
0.313,33.054,3.834,3.992,206.794,163.556,154.897
0.314,33.077,3.837,3.998,206.812,163.569,154.894
0.315,33.101,3.834,4.000,206.824,163.588,154.886
0.316,33.128,3.828,3.998,206.831,163.613,154.877
0.318,33.160,3.818,3.994,206.833,163.643,154.867
0.319,33.198,3.806,3.986,206.831,163.680,154.857
0.320,33.242,3.794,3.976,206.824,163.722,154.849
0.321,33.292,3.781,3.963,206.814,163.771,154.844
0.322,33.349,3.769,3.948,206.801,163.826,154.843
0.323,33.413,3.760,3.931,206.784,163.888,154.848
0.324,33.485,3.754,3.913,206.766,163.957,154.859
0.325,33.566,3.750,3.893,206.745,164.033,154.879
0.326,33.657,3.749,3.872,206.723,164.116,154.908
0.327,33.756,3.748,3.850,206.700,164.205,154.944
0.329,33.861,3.749,3.827,206.678,164.301,154.982
0.330,33.972,3.748,3.805,206.659,164.403,155.021
0.331,34.085,3.747,3.783,206.643,164.509,155.057
0.332,34.201,3.744,3.762,206.631,164.621,155.086
0.333,34.318,3.738,3.742,206.626,164.736,155.106
0.334,34.437,3.729,3.723,206.628,164.855,155.113
0.335,34.560,3.717,3.706,206.638,164.977,155.104
0.336,34.689,3.701,3.689,206.658,165.101,155.076
0.337,34.829,3.684,3.673,206.689,165.227,155.025
0.338,34.982,3.666,3.658,206.732,165.355,154.950
0.340,35.150,3.646,3.642,206.785,165.482,154.854
0.341,35.329,3.626,3.625,206.845,165.608,154.742
0.342,35.515,3.606,3.608,206.911,165.730,154.619
0.343,35.704,3.588,3.589,206.981,165.848,154.489
0.344,35.891,3.570,3.568,207.052,165.960,154.357
0.345,36.071,3.555,3.547,207.121,166.064,154.228
0.346,36.240,3.540,3.525,207.188,166.159,154.106
0.347,36.391,3.526,3.503,207.250,166.243,153.996
0.348,36.521,3.512,3.483,207.303,166.316,153.902
0.350,36.623,3.498,3.465,207.348,166.374,153.831
0.351,36.696,3.483,3.451,207.381,166.418,153.783
0.352,36.743,3.467,3.441,207.404,166.448,153.756
0.353,36.768,3.449,3.436,207.419,166.467,153.746
0.354,36.779,3.429,3.438,207.426,166.475,153.747
0.355,36.788,3.407,3.446,207.428,166.474,153.756
0.356,36.802,3.384,3.458,207.426,166.466,153.767
0.357,36.820,3.360,3.474,207.422,166.452,153.776
0.358,36.840,3.336,3.492,207.416,166.433,153.780
0.359,36.863,3.313,3.509,207.411,166.412,153.772
0.361,36.895,3.292,3.525,207.408,166.389,153.749
0.362,36.943,3.274,3.537,207.409,166.366,153.707
0.363,37.011,3.259,3.545,207.415,166.345,153.643
0.364,37.097,3.248,3.547,207.428,166.327,153.560
0.365,37.197,3.241,3.541,207.451,166.313,153.463
0.366,37.309,3.236,3.527,207.486,166.306,153.358
0.367,37.430,3.232,3.505,207.535,166.306,153.247
0.368,37.560,3.226,3.474,207.602,166.314,153.135
0.369,37.698,3.215,3.435,207.687,166.333,153.028
0.370,37.847,3.198,3.387,207.794,166.364,152.929
0.372,38.010,3.173,3.329,207.924,166.409,152.843
0.373,38.190,3.137,3.262,208.080,166.467,152.774
0.374,38.395,3.088,3.185,208.265,166.543,152.727
0.375,38.628,3.025,3.098,208.478,166.634,152.703
0.376,38.887,2.950,3.003,208.714,166.740,152.699
0.377,39.166,2.865,2.903,208.967,166.858,152.711
0.378,39.461,2.772,2.797,209.232,166.986,152.734
0.379,39.766,2.673,2.690,209.503,167.121,152.765
0.380,40.073,2.572,2.582,209.774,167.261,152.798
0.381,40.377,2.470,2.476,210.041,167.404,152.830
0.383,40.671,2.371,2.373,210.296,167.547,152.857
0.384,40.949,2.275,2.275,210.535,167.688,152.874
0.385,41.205,2.186,2.185,210.752,167.825,152.877
0.386,41.435,2.105,2.103,210.941,167.956,152.862
0.387,41.639,2.032,2.030,211.099,168.078,152.826
0.388,41.821,1.969,1.967,211.229,168.194,152.772
0.389,41.989,1.917,1.915,211.333,168.304,152.700
0.390,42.148,1.877,1.875,211.415,168.408,152.612
0.391,42.303,1.848,1.847,211.475,168.508,152.509
0.393,42.460,1.834,1.833,211.518,168.604,152.394
0.394,42.620,1.834,1.833,211.546,168.698,152.267
0.395,42.786,1.848,1.849,211.561,168.791,152.130
0.396,42.958,1.877,1.878,211.566,168.882,151.985
0.397,43.136,1.918,1.918,211.563,168.974,151.832
0.398,43.319,1.967,1.968,211.556,169.067,151.675
0.399,43.506,2.023,2.024,211.546,169.161,151.514
0.400,43.694,2.084,2.084,211.533,169.256,151.351
0.401,43.881,2.146,2.147,211.520,169.350,151.190
0.402,44.065,2.209,2.209,211.506,169.443,151.032
0.404,44.243,2.268,2.268,211.493,169.534,150.880
0.405,44.412,2.322,2.322,211.482,169.622,150.736
0.406,44.571,2.370,2.370,211.474,169.706,150.602
0.407,44.716,2.412,2.412,211.468,169.786,150.480
0.408,44.846,2.448,2.448,211.467,169.860,150.374
0.409,44.958,2.480,2.480,211.472,169.928,150.284
0.410,45.051,2.507,2.507,211.482,169.989,150.214
0.411,45.127,2.529,2.529,211.498,170.042,150.164
0.412,45.188,2.548,2.548,211.519,170.089,150.131
0.413,45.238,2.562,2.562,211.543,170.130,150.114
0.415,45.282,2.574,2.574,211.568,170.166,150.110
0.416,45.323,2.582,2.582,211.593,170.198,150.117
0.417,45.362,2.589,2.589,211.616,170.225,150.134
0.418,45.402,2.593,2.593,211.636,170.250,150.157
0.419,45.442,2.596,2.596,211.651,170.273,150.186
0.420,45.481,2.598,2.599,211.660,170.294,150.217
0.421,45.519,2.601,2.601,211.661,170.315,150.249
0.422,45.557,2.603,2.603,211.653,170.336,150.280
0.423,45.595,2.606,2.606,211.637,170.357,150.308
0.424,45.634,2.610,2.610,211.616,170.380,150.331
0.426,45.673,2.616,2.616,211.594,170.406,150.350
0.427,45.711,2.622,2.622,211.572,170.435,150.361
0.428,45.749,2.627,2.627,211.556,170.469,150.366
0.429,45.789,2.631,2.631,211.548,170.507,150.361
0.430,45.836,2.631,2.631,211.551,170.553,150.346
0.431,45.897,2.627,2.627,211.568,170.605,150.320
0.432,45.977,2.618,2.618,211.603,170.665,150.282
0.433,46.080,2.602,2.602,211.660,170.734,150.231
0.434,46.210,2.579,2.579,211.740,170.812,150.165
0.436,46.367,2.548,2.548,211.844,170.900,150.085
0.437,46.546,2.510,2.510,211.966,170.995,149.994
0.438,46.742,2.467,2.467,212.101,171.095,149.895
0.439,46.950,2.420,2.420,212.247,171.199,149.790
0.440,47.163,2.371,2.371,212.397,171.305,149.681
0.441,47.378,2.322,2.322,212.548,171.411,149.571
0.442,47.588,2.274,2.274,212.696,171.515,149.463
0.443,47.789,2.228,2.228,212.834,171.615,149.359
0.444,47.975,2.187,2.187,212.961,171.711,149.261
0.445,48.141,2.152,2.152,213.069,171.799,149.172
0.447,48.282,2.122,2.122,213.157,171.878,149.095
0.448,48.399,2.097,2.097,213.223,171.949,149.028
0.449,48.497,2.077,2.077,213.271,172.011,148.970
