"T","Distance","Radius","FreeRadius","X","Y","Z"
0.000,0.000,1.627,1.627,-77.107,-56.691,-8.372
0.001,0.069,1.678,1.678,-77.098,-56.753,-8.402
0.002,0.137,1.727,1.727,-77.089,-56.814,-8.431
0.004,0.204,1.772,1.772,-77.080,-56.873,-8.461
0.005,0.268,1.812,1.812,-77.072,-56.929,-8.492
0.006,0.330,1.845,1.845,-77.065,-56.982,-8.523
0.007,0.388,1.869,1.869,-77.059,-57.030,-8.556
0.008,0.443,1.882,1.882,-77.053,-57.072,-8.589
0.009,0.493,1.883,1.883,-77.049,-57.109,-8.624
0.011,0.540,1.869,1.869,-77.046,-57.138,-8.660
0.012,0.584,1.843,1.843,-77.044,-57.159,-8.699
0.013,0.625,1.806,1.806,-77.044,-57.170,-8.739
0.014,0.668,1.764,1.764,-77.046,-57.172,-8.781
0.015,0.712,1.720,1.720,-77.050,-57.165,-8.825
0.017,0.758,1.678,1.678,-77.054,-57.152,-8.868
0.018,0.801,1.641,1.641,-77.059,-57.137,-8.909
0.019,0.839,1.614,1.614,-77.063,-57.124,-8.944
0.020,0.868,1.600,1.600,-77.066,-57.118,-8.972
0.021,0.888,1.603,1.603,-77.066,-57.122,-8.991
0.022,0.908,1.621,1.621,-77.063,-57.141,-8.998
0.024,0.947,1.650,1.650,-77.056,-57.179,-8.991
0.025,1.013,1.686,1.686,-77.044,-57.239,-8.968
0.026,1.111,1.728,1.728,-77.027,-57.326,-8.926
0.027,1.246,1.770,1.770,-77.003,-57.444,-8.864
0.028,1.423,1.811,1.811,-76.973,-57.597,-8.778
0.029,1.642,1.845,1.845,-76.935,-57.783,-8.671
0.031,1.895,1.870,1.870,-76.891,-57.997,-8.544
0.032,2.173,1.885,1.885,-76.843,-58.233,-8.404
0.033,2.470,1.891,1.891,-76.792,-58.484,-8.253
0.034,2.778,1.890,1.890,-76.738,-58.743,-8.096
0.035,3.089,1.885,1.885,-76.684,-59.005,-7.937
0.037,3.396,1.877,1.877,-76.630,-59.263,-7.780
0.038,3.690,1.869,1.869,-76.578,-59.510,-7.629
0.039,3.965,1.862,1.862,-76.529,-59.740,-7.488
0.040,4.211,1.859,1.859,-76.485,-59.948,-7.362
0.041,4.423,1.861,1.861,-76.445,-60.125,-7.254
0.042,4.592,1.869,1.869,-76.413,-60.267,-7.167
0.044,4.719,1.881,1.881,-76.387,-60.373,-7.103
0.045,4.808,1.895,1.895,-76.368,-60.448,-7.059
0.046,4.864,1.911,1.911,-76.354,-60.495,-7.032
0.047,4.892,1.927,1.927,-76.344,-60.518,-7.019
0.048,4.898,1.941,1.941,-76.339,-60.521,-7.019
0.050,4.914,1.953,1.953,-76.336,-60.508,-7.028
0.051,4.944,1.960,1.960,-76.337,-60.484,-7.045
0.052,4.983,1.963,1.963,-76.339,-60.451,-7.067
0.053,5.027,1.961,1.961,-76.342,-60.414,-7.091
0.054,5.071,1.956,1.956,-76.346,-60.378,-7.114
0.055,5.111,1.949,1.949,-76.350,-60.344,-7.136
0.057,5.142,1.941,1.941,-76.353,-60.318,-7.152
0.058,5.163,1.933,1.933,-76.355,-60.300,-7.163
0.059,5.175,1.925,1.925,-76.356,-60.289,-7.169
0.060,5.179,1.918,1.918,-76.357,-60.286,-7.169
0.061,5.185,1.914,1.914,-76.357,-60.289,-7.164
0.063,5.199,1.913,1.913,-76.358,-60.299,-7.154
0.064,5.222,1.916,1.916,-76.358,-60.315,-7.138
0.065,5.252,1.921,1.921,-76.359,-60.337,-7.116
0.066,5.290,1.930,1.930,-76.361,-60.364,-7.090
0.067,5.336,1.942,1.942,-76.363,-60.396,-7.058
0.068,5.389,1.958,1.958,-76.365,-60.434,-7.020
0.070,5.449,1.978,1.978,-76.369,-60.476,-6.977
0.071,5.516,2.002,2.002,-76.374,-60.522,-6.929
0.072,5.588,2.029,2.029,-76.380,-60.571,-6.877
0.073,5.664,2.059,2.059,-76.386,-60.623,-6.822
0.074,5.743,2.091,2.091,-76.392,-60.678,-6.765
0.075,5.823,2.124,2.124,-76.397,-60.734,-6.709
0.077,5.902,2.155,2.155,-76.401,-60.791,-6.653
0.078,5.980,2.186,2.186,-76.405,-60.848,-6.600
0.079,6.055,2.213,2.213,-76.406,-60.904,-6.550
0.080,6.126,2.236,2.236,-76.405,-60.959,-6.506
0.081,6.192,2.254,2.254,-76.402,-61.013,-6.468
0.083,6.252,2.267,2.267,-76.396,-61.064,-6.437
0.084,6.305,2.275,2.275,-76.386,-61.112,-6.415
0.085,6.353,2.280,2.280,-76.373,-61.156,-6.403
0.086,6.396,2.281,2.281,-76.358,-61.196,-6.398
0.087,6.436,2.281,2.281,-76.341,-61.232,-6.400
0.088,6.473,2.280,2.280,-76.324,-61.264,-6.408
0.090,6.508,2.279,2.279,-76.307,-61.291,-6.421
0.091,6.540,2.278,2.278,-76.292,-61.314,-6.437
0.092,6.568,2.279,2.279,-76.279,-61.332,-6.456
0.093,6.594,2.280,2.280,-76.269,-61.345,-6.475
0.094,6.615,2.283,2.283,-76.264,-61.352,-6.494
0.096,6.633,2.286,2.286,-76.264,-61.354,-6.512
0.097,6.650,2.288,2.288,-76.269,-61.351,-6.528
0.098,6.670,2.290,2.290,-76.282,-61.341,-6.539
0.099,6.694,2.291,2.291,-76.300,-61.327,-6.547
0.100,6.721,2.289,2.289,-76.322,-61.311,-6.551
0.101,6.748,2.286,2.286,-76.344,-61.295,-6.551
0.103,6.771,2.281,2.281,-76.363,-61.283,-6.547
0.104,6.788,2.275,2.275,-76.376,-61.275,-6.540
0.105,6.800,2.269,2.269,-76.382,-61.277,-6.529
0.106,6.820,2.264,2.264,-76.376,-61.288,-6.515
0.107,6.855,2.261,2.261,-76.357,-61.313,-6.498
0.108,6.913,2.262,2.262,-76.320,-61.354,-6.478
0.110,6.998,2.268,2.268,-76.264,-61.412,-6.455
0.111,7.112,2.279,2.279,-76.186,-61.492,-6.430
0.112,7.260,2.297,2.297,-76.083,-61.594,-6.402
0.113,7.438,2.321,2.321,-75.958,-61.717,-6.372
0.114,7.639,2.350,2.350,-75.816,-61.856,-6.340
0.116,7.858,2.382,2.382,-75.661,-62.008,-6.308
0.117,8.088,2.416,2.416,-75.499,-62.167,-6.276
0.118,8.322,2.452,2.452,-75.333,-62.330,-6.245
0.119,8.554,2.487,2.487,-75.170,-62.492,-6.216
0.120,8.778,2.521,2.521,-75.013,-62.649,-6.188
0.121,8.987,2.552,2.552,-74.868,-62.797,-6.164
0.123,9.174,2.579,2.579,-74.738,-62.931,-6.143
0.124,9.334,2.603,2.603,-74.630,-63.048,-6.127
0.125,9.460,2.623,2.623,-74.548,-63.143,-6.116
0.126,9.548,2.641,2.641,-74.495,-63.213,-6.110
0.127,9.603,2.655,2.655,-74.467,-63.260,-6.108
0.129,9.632,2.667,2.667,-74.459,-63.287,-6.108
0.130,9.645,2.677,2.677,-74.466,-63.299,-6.109
0.131,9.661,2.684,2.684,-74.482,-63.297,-6.109
0.132,9.684,2.689,2.689,-74.502,-63.286,-6.107
0.133,9.710,2.693,2.693,-74.521,-63.269,-6.099
0.134,9.737,2.698,2.698,-74.533,-63.249,-6.086
0.136,9.766,2.704,2.704,-74.532,-63.229,-6.064
0.137,9.805,2.714,2.714,-74.514,-63.213,-6.033
0.138,9.865,2.729,2.729,-74.474,-63.205,-5.991
0.139,9.953,2.750,2.750,-74.405,-63.206,-5.936
0.140,10.075,2.779,2.779,-74.306,-63.220,-5.867
0.142,10.225,2.818,2.818,-74.181,-63.245,-5.786
0.143,10.400,2.866,2.866,-74.034,-63.278,-5.697
0.144,10.593,2.922,2.922,-73.872,-63.317,-5.602
0.145,10.797,2.982,2.982,-73.698,-63.362,-5.503
0.146,11.008,3.045,3.045,-73.518,-63.408,-5.402
0.147,11.220,3.106,3.106,-73.338,-63.456,-5.303
0.149,11.426,3.164,3.164,-73.161,-63.502,-5.208
0.150,11.620,3.215,3.215,-72.994,-63.545,-5.118
0.151,11.797,3.257,3.257,-72.840,-63.582,-5.038
0.152,11.951,3.287,3.287,-72.706,-63.612,-4.969
0.153,12.076,3.304,3.304,-72.596,-63.633,-4.913
0.154,12.171,3.311,3.311,-72.512,-63.644,-4.872
0.156,12.238,3.311,3.311,-72.451,-63.649,-4.843
0.157,12.282,3.305,3.305,-72.412,-63.647,-4.825
0.158,12.305,3.295,3.295,-72.391,-63.643,-4.817
0.159,12.312,3.285,3.285,-72.386,-63.638,-4.816
0.160,12.323,3.277,3.277,-72.396,-63.634,-4.821
0.162,12.346,3.272,3.272,-72.416,-63.633,-4.830
0.163,12.378,3.272,3.272,-72.446,-63.638,-4.841
0.164,12.419,3.278,3.278,-72.483,-63.650,-4.853
0.165,12.467,3.286,3.286,-72.524,-63.672,-4.865
0.166,12.522,3.295,3.295,-72.567,-63.706,-4.873
0.167,12.586,3.303,3.303,-72.609,-63.754,-4.877
0.169,12.659,3.310,3.310,-72.650,-63.814,-4.877
0.170,12.740,3.313,3.313,-72.689,-63.885,-4.873
0.171,12.828,3.310,3.310,-72.726,-63.965,-4.865
0.172,12.919,3.299,3.299,-72.759,-64.049,-4.854
0.173,13.013,3.281,3.281,-72.790,-64.137,-4.841
0.175,13.106,3.257,3.257,-72.817,-64.225,-4.826
0.176,13.197,3.229,3.229,-72.840,-64.311,-4.810
0.177,13.282,3.198,3.198,-72.859,-64.392,-4.794
0.178,13.359,3.166,3.166,-72.874,-64.466,-4.777
0.179,13.426,3.135,3.135,-72.883,-64.531,-4.761
0.180,13.481,3.105,3.105,-72.887,-64.583,-4.746
0.182,13.522,3.080,3.080,-72.885,-64.622,-4.733
0.183,13.550,3.060,3.060,-72.878,-64.647,-4.722
0.184,13.570,3.045,3.045,-72.869,-64.662,-4.713
0.185,13.584,3.035,3.035,-72.858,-64.667,-4.706
0.186,13.596,3.029,3.028,-72.846,-64.667,-4.702
0.188,13.608,3.025,3.025,-72.836,-64.662,-4.700
0.189,13.618,3.024,3.024,-72.829,-64.655,-4.702
0.190,13.628,3.024,3.024,-72.825,-64.647,-4.707
0.191,13.637,3.024,3.024,-72.827,-64.642,-4.715
0.192,13.652,3.025,3.025,-72.837,-64.642,-4.726
0.193,13.676,3.024,3.024,-72.855,-64.647,-4.741
0.195,13.713,3.021,3.021,-72.882,-64.662,-4.761
0.196,13.765,3.013,3.013,-72.921,-64.686,-4.784
0.197,13.831,2.999,2.999,-72.970,-64.721,-4.812
0.198,13.911,2.978,2.978,-73.028,-64.766,-4.844
0.199,14.003,2.946,2.946,-73.094,-64.820,-4.880
0.200,14.108,2.904,2.904,-73.167,-64.883,-4.921
0.202,14.225,2.848,2.849,-73.246,-64.956,-4.967
0.203,14.352,2.779,2.779,-73.330,-65.037,-5.017
0.204,14.489,2.697,2.696,-73.418,-65.126,-5.071
0.205,14.635,2.605,2.604,-73.509,-65.224,-5.131
0.206,14.789,2.506,2.506,-73.602,-65.329,-5.195
0.208,14.952,2.405,2.405,-73.696,-65.442,-5.264
0.209,15.121,2.304,2.304,-73.790,-65.561,-5.339
0.210,15.296,2.207,2.206,-73.883,-65.687,-5.417
0.211,15.475,2.116,2.116,-73.974,-65.817,-5.500
0.212,15.656,2.035,2.036,-74.064,-65.949,-5.585
0.213,15.837,1.967,1.968,-74.152,-66.081,-5.672
0.215,16.015,1.910,1.912,-74.236,-66.212,-5.760
0.216,16.189,1.864,1.866,-74.318,-66.339,-5.847
0.217,16.357,1.827,1.829,-74.396,-66.460,-5.933
0.218,16.516,1.798,1.801,-74.469,-66.573,-6.017
0.219,16.665,1.776,1.778,-74.539,-66.677,-6.097
0.221,16.801,1.759,1.761,-74.603,-66.769,-6.174
0.222,16.922,1.748,1.748,-74.662,-66.847,-6.244
0.223,17.026,1.739,1.738,-74.715,-66.910,-6.309
0.224,17.116,1.733,1.729,-74.763,-66.958,-6.368
0.225,17.193,1.728,1.722,-74.807,-66.993,-6.421
0.226,17.261,1.724,1.716,-74.847,-67.016,-6.470
0.228,17.322,1.720,1.710,-74.887,-67.031,-6.515
0.229,17.380,1.714,1.705,-74.926,-67.039,-6.557
0.230,17.437,1.707,1.698,-74.965,-67.042,-6.598
0.231,17.495,1.697,1.691,-75.007,-67.043,-6.638
0.232,17.555,1.683,1.683,-75.052,-67.043,-6.677
0.233,17.619,1.665,1.673,-75.102,-67.046,-6.718
0.235,17.690,1.644,1.661,-75.158,-67.052,-6.760
0.236,17.768,1.619,1.649,-75.221,-67.065,-6.805
0.237,17.856,1.592,1.635,-75.292,-67.086,-6.853
0.238,17.954,1.563,1.620,-75.370,-67.115,-6.904
0.239,18.060,1.533,1.606,-75.455,-67.153,-6.954
0.241,18.172,1.502,1.591,-75.546,-67.198,-7.004
0.242,18.289,1.473,1.576,-75.640,-67.250,-7.049
0.243,18.410,1.444,1.561,-75.738,-67.308,-7.089
0.244,18.533,1.416,1.547,-75.837,-67.374,-7.122
0.245,18.657,1.391,1.534,-75.936,-67.444,-7.145
0.246,18.782,1.367,1.520,-76.035,-67.521,-7.157
0.248,18.909,1.344,1.507,-76.132,-67.602,-7.156
0.249,19.037,1.324,1.494,-76.225,-67.687,-7.140
0.250,19.167,1.306,1.481,-76.315,-67.777,-7.107
0.251,19.303,1.290,1.468,-76.399,-67.870,-7.056
0.252,19.444,1.276,1.455,-76.478,-67.966,-6.988
0.254,19.591,1.265,1.441,-76.551,-68.063,-6.907
0.255,19.744,1.256,1.428,-76.621,-68.161,-6.813
0.256,19.900,1.250,1.415,-76.685,-68.259,-6.709
0.257,20.059,1.247,1.403,-76.746,-68.355,-6.599
0.258,20.218,1.247,1.392,-76.803,-68.449,-6.483
0.259,20.376,1.251,1.383,-76.856,-68.540,-6.365
0.261,20.531,1.257,1.377,-76.907,-68.626,-6.246
0.262,20.681,1.268,1.374,-76.954,-68.707,-6.130
0.263,20.823,1.282,1.374,-76.999,-68.781,-6.018
0.264,20.955,1.299,1.377,-77.041,-68.849,-5.912
0.265,21.075,1.318,1.383,-77.081,-68.909,-5.816
0.267,21.183,1.337,1.388,-77.119,-68.963,-5.730
0.268,21.279,1.354,1.393,-77.155,-69.013,-5.657
0.269,21.362,1.368,1.396,-77.187,-69.062,-5.599
0.270,21.433,1.378,1.395,-77.218,-69.111,-5.557
0.271,21.495,1.381,1.389,-77.245,-69.161,-5.533
0.272,21.555,1.376,1.377,-77.269,-69.216,-5.529
0.274,21.622,1.361,1.358,-77.289,-69.277,-5.547
0.275,21.704,1.338,1.332,-77.307,-69.346,-5.589
0.276,21.809,1.311,1.303,-77.320,-69.424,-5.656
0.277,21.940,1.282,1.274,-77.330,-69.515,-5.751
0.278,22.102,1.255,1.248,-77.336,-69.619,-5.876
0.279,22.295,1.232,1.227,-77.338,-69.736,-6.028
0.281,22.511,1.217,1.214,-77.337,-69.864,-6.202
0.282,22.745,1.214,1.213,-77.333,-69.998,-6.394
0.283,22.991,1.225,1.225,-77.326,-70.137,-6.597
0.284,23.243,1.251,1.253,-77.317,-70.276,-6.807
0.285,23.494,1.291,1.292,-77.307,-70.413,-7.017
0.287,23.738,1.339,1.341,-77.296,-70.544,-7.223
0.288,23.969,1.393,1.395,-77.284,-70.666,-7.419
0.289,24.180,1.449,1.451,-77.272,-70.776,-7.599
0.290,24.366,1.503,1.504,-77.261,-70.871,-7.758
0.291,24.520,1.552,1.553,-77.250,-70.947,-7.890
0.292,24.635,1.592,1.592,-77.240,-71.002,-7.992
0.294,24.714,1.620,1.619,-77.232,-71.037,-8.062
0.295,24.763,1.635,1.634,-77.225,-71.055,-8.107
0.296,24.785,1.639,1.639,-77.221,-71.059,-8.129
0.297,24.792,1.636,1.636,-77.220,-71.054,-8.133
0.298,24.807,1.628,1.627,-77.221,-71.043,-8.123
0.300,24.831,1.616,1.616,-77.225,-71.028,-8.105
0.301,24.859,1.603,1.603,-77.233,-71.015,-8.081
0.302,24.888,1.593,1.592,-77.245,-71.006,-8.057
0.303,24.913,1.586,1.586,-77.260,-71.004,-8.037
0.304,24.939,1.585,1.585,-77.280,-71.014,-8.024
0.305,24.974,1.589,1.589,-77.305,-71.038,-8.024
0.307,25.027,1.598,1.598,-77.335,-71.080,-8.040
0.308,25.101,1.610,1.610,-77.368,-71.138,-8.070
0.309,25.191,1.625,1.625,-77.405,-71.209,-8.113
0.310,25.295,1.642,1.643,-77.445,-71.288,-8.165
0.311,25.407,1.661,1.661,-77.486,-71.374,-8.224
0.313,25.524,1.679,1.679,-77.528,-71.463,-8.288
0.314,25.642,1.697,1.697,-77.569,-71.552,-8.354
0.315,25.756,1.714,1.714,-77.609,-71.637,-8.419
0.316,25.863,1.730,1.730,-77.647,-71.716,-8.481
0.317,25.958,1.744,1.744,-77.681,-71.784,-8.536
0.318,26.037,1.756,1.756,-77.712,-71.839,-8.584
0.320,26.096,1.767,1.767,-77.738,-71.878,-8.620
0.321,26.134,1.777,1.777,-77.758,-71.899,-8.644
0.322,26.154,1.784,1.784,-77.773,-71.905,-8.657
0.323,26.167,1.790,1.790,-77.784,-71.900,-8.662
0.324,26.181,1.793,1.793,-77.790,-71.888,-8.661
0.325,26.197,1.795,1.795,-77.793,-71.872,-8.657
0.327,26.213,1.796,1.796,-77.792,-71.857,-8.652
0.328,26.225,1.798,1.798,-77.788,-71.846,-8.648
0.329,26.231,1.800,1.800,-77.783,-71.843,-8.649
0.330,26.245,1.804,1.804,-77.775,-71.853,-8.656
0.331,26.277,1.810,1.810,-77.766,-71.879,-8.672
0.333,26.331,1.819,1.819,-77.757,-71.924,-8.699
0.334,26.412,1.832,1.832,-77.747,-71.993,-8.740
0.335,26.521,1.848,1.848,-77.737,-72.087,-8.795
0.336,26.654,1.868,1.868,-77.727,-72.202,-8.862
0.337,26.807,1.890,1.890,-77.716,-72.333,-8.939
0.338,26.973,1.912,1.912,-77.703,-72.476,-9.024
0.340,27.149,1.934,1.934,-77.689,-72.627,-9.113
0.341,27.330,1.955,1.955,-77.674,-72.782,-9.205
0.342,27.511,1.973,1.973,-77.656,-72.936,-9.298
0.343,27.687,1.988,1.988,-77.635,-73.086,-9.388
0.344,27.853,1.999,1.999,-77.612,-73.227,-9.473
0.346,28.005,2.006,2.006,-77.585,-73.354,-9.552
0.347,28.139,2.009,2.009,-77.555,-73.464,-9.620
0.348,28.250,2.011,2.011,-77.521,-73.553,-9.678
0.349,28.338,2.012,2.012,-77.484,-73.620,-9.723
0.350,28.407,2.012,2.012,-77.448,-73.667,-9.756
0.351,28.458,2.013,2.013,-77.414,-73.698,-9.780
0.353,28.494,2.016,2.016,-77.386,-73.715,-9.794
0.354,28.515,2.021,2.021,-77.366,-73.721,-9.801
0.355,28.524,2.030,2.030,-77.358,-73.718,-9.801
0.356,28.536,2.042,2.042,-77.364,-73.710,-9.794
0.357,28.564,2.057,2.057,-77.386,-73.698,-9.784
0.358,28.609,2.076,2.076,-77.428,-73.686,-9.769
0.360,28.676,2.098,2.098,-77.492,-73.676,-9.752
0.361,28.767,2.123,2.123,-77.581,-73.672,-9.734
0.362,28.885,2.151,2.151,-77.697,-73.674,-9.715
0.363,29.027,2.182,2.182,-77.837,-73.685,-9.695
0.364,29.189,2.216,2.216,-77.997,-73.701,-9.676
0.366,29.365,2.253,2.253,-78.171,-73.723,-9.657
0.367,29.551,2.291,2.291,-78.354,-73.748,-9.639
0.368,29.741,2.329,2.329,-78.541,-73.777,-9.620
0.369,29.931,2.368,2.368,-78.728,-73.807,-9.602
0.370,30.115,2.405,2.405,-78.908,-73.838,-9.584
0.371,30.287,2.439,2.439,-79.077,-73.868,-9.567
0.373,30.444,2.471,2.471,-79.230,-73.897,-9.550
0.374,30.579,2.498,2.498,-79.361,-73.922,-9.534
0.375,30.687,2.520,2.520,-79.467,-73.944,-9.519
0.376,30.766,2.537,2.537,-79.542,-73.961,-9.505
0.377,30.817,2.548,2.548,-79.590,-73.974,-9.493
0.379,30.845,2.552,2.552,-79.615,-73.983,-9.483
0.380,30.856,2.549,2.549,-79.622,-73.989,-9.477
0.381,30.865,2.538,2.539,-79.615,-73.993,-9.475
0.382,30.884,2.520,2.520,-79.597,-73.996,-9.479
0.383,30.909,2.493,2.493,-79.573,-73.998,-9.489
0.384,30.940,2.458,2.458,-79.548,-74.001,-9.507
0.386,30.974,2.415,2.414,-79.526,-74.005,-9.532
0.387,31.012,2.367,2.366,-79.511,-74.011,-9.566
0.388,31.057,2.317,2.316,-79.507,-74.020,-9.610
0.389,31.114,2.268,2.267,-79.519,-74.032,-9.665
0.390,31.188,2.222,2.222,-79.549,-74.048,-9.731
0.392,31.278,2.184,2.183,-79.596,-74.064,-9.806
0.393,31.382,2.154,2.154,-79.659,-74.080,-9.887
0.394,31.499,2.137,2.137,-79.736,-74.092,-9.974
0.395,31.625,2.135,2.135,-79.826,-74.099,-10.063
0.396,31.761,2.145,2.146,-79.927,-74.097,-10.153
0.397,31.903,2.167,2.168,-80.039,-74.085,-10.241
0.399,32.052,2.196,2.199,-80.158,-74.060,-10.325
0.400,32.207,2.232,2.235,-80.285,-74.020,-10.404
0.401,32.368,2.272,2.274,-80.418,-73.962,-10.476
0.402,32.537,2.314,2.315,-80.555,-73.885,-10.537
0.403,32.715,2.354,2.355,-80.695,-73.786,-10.587
0.404,32.905,2.391,2.391,-80.836,-73.666,-10.624
0.406,33.105,2.425,2.422,-80.979,-73.528,-10.651
0.407,33.314,2.454,2.449,-81.124,-73.378,-10.668
0.408,33.529,2.481,2.474,-81.269,-73.220,-10.678
0.409,33.747,2.507,2.498,-81.415,-73.058,-10.681
0.410,33.965,2.531,2.522,-81.561,-72.897,-10.680
0.412,34.179,2.555,2.547,-81.708,-72.741,-10.676
0.413,34.385,2.580,2.575,-81.854,-72.595,-10.670
0.414,34.582,2.607,2.605,-81.999,-72.462,-10.664
0.415,34.766,2.635,2.641,-82.144,-72.349,-10.659
0.416,34.936,2.665,2.679,-82.287,-72.258,-10.658
0.417,35.091,2.696,2.720,-82.429,-72.194,-10.661
0.419,35.237,2.726,2.759,-82.569,-72.157,-10.669
0.420,35.377,2.753,2.797,-82.709,-72.144,-10.683
0.421,35.517,2.778,2.829,-82.847,-72.150,-10.704
0.422,35.660,2.797,2.856,-82.985,-72.174,-10.731
0.423,35.807,2.811,2.874,-83.123,-72.212,-10.764
0.425,35.958,2.818,2.882,-83.260,-72.260,-10.806
0.426,36.115,2.818,2.879,-83.398,-72.316,-10.855
0.427,36.276,2.814,2.869,-83.537,-72.375,-10.912
0.428,36.442,2.807,2.854,-83.676,-72.436,-10.978
0.429,36.612,2.800,2.839,-83.817,-72.494,-11.053
0.430,36.785,2.797,2.825,-83.959,-72.547,-11.138
0.432,36.963,2.799,2.818,-84.103,-72.591,-11.232
0.433,37.143,2.809,2.819,-84.247,-72.626,-11.334
0.434,37.324,2.830,2.832,-84.391,-72.654,-11.441
0.435,37.504,2.864,2.860,-84.532,-72.675,-11.550
0.436,37.681,2.909,2.903,-84.671,-72.688,-11.659
0.438,37.852,2.964,2.956,-84.805,-72.696,-11.765
0.439,38.015,3.025,3.016,-84.933,-72.698,-11.866
0.440,38.168,3.088,3.081,-85.055,-72.696,-11.958
0.441,38.307,3.151,3.145,-85.168,-72.689,-12.040
0.442,38.432,3.211,3.207,-85.271,-72.679,-12.109
0.443,38.539,3.264,3.263,-85.364,-72.666,-12.162
0.445,38.628,3.308,3.308,-85.444,-72.651,-12.197
0.446,38.700,3.340,3.342,-85.512,-72.634,-12.211
0.447,38.760,3.363,3.365,-85.569,-72.615,-12.208
0.448,38.816,3.377,3.379,-85.617,-72.593,-12.188
0.449,38.874,3.384,3.387,-85.658,-72.569,-12.154
0.450,38.939,3.388,3.390,-85.694,-72.541,-12.109
0.452,39.010,3.389,3.390,-85.728,-72.509,-12.055
0.453,39.089,3.389,3.390,-85.761,-72.473,-11.993
0.454,39.175,3.390,3.391,-85.796,-72.432,-11.927
0.455,39.266,3.395,3.395,-85.835,-72.386,-11.858
0.456,39.363,3.404,3.404,-85.879,-72.334,-11.789
0.458,39.466,3.417,3.416,-85.931,-72.276,-11.721
0.459,39.576,3.433,3.432,-85.993,-72.212,-11.658
0.460,39.692,3.453,3.452,-86.065,-72.141,-11.601
0.461,39.814,3.476,3.475,-86.147,-72.064,-11.552
0.462,39.942,3.501,3.501,-86.237,-71.982,-11.512
0.463,40.074,3.530,3.530,-86.333,-71.896,-11.483
0.465,40.210,3.561,3.561,-86.433,-71.806,-11.467
0.466,40.349,3.595,3.595,-86.537,-71.713,-11.466
0.467,40.492,3.630,3.631,-86.642,-71.618,-11.481
0.468,40.639,3.667,3.668,-86.748,-71.522,-11.513
0.469,40.791,3.704,3.705,-86.853,-71.424,-11.565
0.471,40.949,3.741,3.743,-86.954,-71.327,-11.638
0.472,41.117,3.778,3.779,-87.052,-71.230,-11.733
0.473,41.295,3.814,3.815,-87.143,-71.135,-11.853
0.474,41.485,3.848,3.849,-87.228,-71.042,-11.995
0.475,41.684,3.881,3.880,-87.306,-70.951,-12.155
0.476,41.889,3.910,3.909,-87.377,-70.866,-12.327
0.478,42.096,3.937,3.935,-87.440,-70.785,-12.507
0.479,42.302,3.961,3.958,-87.495,-70.709,-12.690
0.480,42.500,3.982,3.978,-87.541,-70.641,-12.871
0.481,42.688,4.000,3.996,-87.579,-70.581,-13.045
0.482,42.861,4.015,4.011,-87.608,-70.529,-13.207
0.483,43.014,4.025,4.023,-87.628,-70.487,-13.353
0.485,43.142,4.032,4.032,-87.638,-70.455,-13.476
0.486,43.241,4.035,4.038,-87.638,-70.435,-13.574
0.487,43.309,4.034,4.042,-87.627,-70.427,-13.641
0.488,43.352,4.031,4.043,-87.609,-70.430,-13.679
0.489,43.381,4.025,4.042,-87.587,-70.440,-13.694
