"T","Distance","Radius","FreeRadius","X","Y","Z"
0.000,0.000,1.627,1.627,-77.107,-56.691,-8.372
0.001,0.071,1.662,1.662,-77.116,-56.748,-8.413
0.003,0.141,1.695,1.695,-77.124,-56.805,-8.454
0.004,0.210,1.727,1.727,-77.130,-56.860,-8.494
0.005,0.277,1.756,1.756,-77.134,-56.914,-8.535
0.007,0.342,1.781,1.781,-77.134,-56.965,-8.574
0.008,0.405,1.801,1.801,-77.130,-57.014,-8.614
0.010,0.466,1.816,1.816,-77.120,-57.059,-8.653
0.011,0.524,1.824,1.824,-77.104,-57.101,-8.692
0.012,0.582,1.827,1.827,-77.081,-57.138,-8.730
0.014,0.641,1.825,1.825,-77.050,-57.170,-8.767
0.015,0.701,1.820,1.820,-77.010,-57.196,-8.804
0.016,0.764,1.814,1.814,-76.962,-57.218,-8.839
0.018,0.830,1.807,1.807,-76.909,-57.235,-8.874
0.019,0.899,1.802,1.802,-76.851,-57.250,-8.909
0.021,0.969,1.800,1.800,-76.791,-57.262,-8.942
0.022,1.039,1.801,1.801,-76.730,-57.272,-8.974
0.023,1.107,1.807,1.807,-76.669,-57.281,-9.006
0.025,1.174,1.817,1.817,-76.611,-57.291,-9.036
0.026,1.236,1.832,1.832,-76.558,-57.301,-9.066
0.027,1.293,1.853,1.853,-76.510,-57.313,-9.094
0.029,1.344,1.878,1.878,-76.469,-57.328,-9.122
0.030,1.390,1.910,1.910,-76.434,-57.343,-9.148
0.032,1.433,1.947,1.947,-76.403,-57.358,-9.172
0.033,1.472,1.988,1.988,-76.373,-57.371,-9.194
0.034,1.510,2.031,2.031,-76.341,-57.379,-9.214
0.036,1.549,2.073,2.073,-76.305,-57.382,-9.230
0.037,1.593,2.113,2.113,-76.264,-57.376,-9.242
0.038,1.647,2.148,2.148,-76.213,-57.361,-9.251
0.040,1.714,2.176,2.176,-76.151,-57.335,-9.254
0.041,1.800,2.194,2.194,-76.076,-57.295,-9.253
0.043,1.906,2.204,2.204,-75.984,-57.241,-9.247
0.044,2.033,2.205,2.205,-75.878,-57.172,-9.235
0.045,2.175,2.199,2.199,-75.761,-57.093,-9.219
0.047,2.329,2.186,2.186,-75.636,-57.006,-9.200
0.048,2.489,2.170,2.170,-75.507,-56.914,-9.180
0.049,2.652,2.149,2.149,-75.376,-56.819,-9.158
0.051,2.812,2.126,2.126,-75.248,-56.726,-9.136
0.052,2.965,2.102,2.102,-75.126,-56.635,-9.115
0.054,3.107,2.078,2.078,-75.013,-56.552,-9.095
0.055,3.232,2.055,2.055,-74.913,-56.478,-9.079
0.056,3.338,2.036,2.036,-74.829,-56.416,-9.066
0.058,3.423,2.020,2.020,-74.760,-56.365,-9.059
0.059,3.493,2.011,2.011,-74.704,-56.325,-9.057
0.060,3.552,2.008,2.008,-74.656,-56.290,-9.062
0.062,3.606,2.014,2.014,-74.614,-56.260,-9.076
0.063,3.661,2.028,2.028,-74.573,-56.231,-9.099
0.065,3.723,2.051,2.051,-74.531,-56.200,-9.132
0.066,3.797,2.082,2.082,-74.483,-56.165,-9.177
0.067,3.889,2.122,2.122,-74.427,-56.122,-9.235
0.069,4.001,2.169,2.169,-74.358,-56.070,-9.307
0.070,4.138,2.225,2.225,-74.274,-56.005,-9.394
0.071,4.300,2.288,2.288,-74.174,-55.928,-9.494
0.073,4.480,2.358,2.358,-74.061,-55.841,-9.606
0.074,4.673,2.432,2.432,-73.941,-55.748,-9.724
0.076,4.874,2.506,2.506,-73.815,-55.651,-9.847
0.077,5.075,2.579,2.579,-73.689,-55.554,-9.970
0.078,5.272,2.648,2.648,-73.565,-55.459,-10.090
0.080,5.457,2.710,2.710,-73.447,-55.371,-10.203
0.081,5.626,2.762,2.762,-73.340,-55.291,-10.307
0.082,5.772,2.803,2.803,-73.248,-55.224,-10.397
0.084,5.890,2.834,2.834,-73.172,-55.172,-10.471
0.085,5.977,2.856,2.856,-73.116,-55.135,-10.527
0.087,6.037,2.871,2.871,-73.077,-55.112,-10.567
0.088,6.075,2.880,2.880,-73.053,-55.099,-10.593
0.089,6.094,2.885,2.885,-73.042,-55.094,-10.606
0.091,6.098,2.888,2.888,-73.040,-55.093,-10.610
0.092,6.105,2.890,2.890,-73.047,-55.093,-10.607
0.093,6.121,2.891,2.891,-73.059,-55.091,-10.597
0.095,6.141,2.890,2.890,-73.074,-55.085,-10.584
0.096,6.166,2.888,2.888,-73.090,-55.072,-10.570
0.098,6.198,2.885,2.885,-73.104,-55.047,-10.557
0.099,6.237,2.880,2.880,-73.115,-55.012,-10.546
0.100,6.283,2.873,2.873,-73.124,-54.967,-10.538
0.102,6.333,2.865,2.865,-73.130,-54.917,-10.533
0.103,6.386,2.854,2.854,-73.135,-54.865,-10.532
0.104,6.437,2.843,2.843,-73.139,-54.813,-10.535
0.106,6.485,2.832,2.832,-73.142,-54.767,-10.543
0.107,6.526,2.824,2.824,-73.146,-54.728,-10.555
0.109,6.560,2.818,2.818,-73.150,-54.699,-10.574
0.110,6.589,2.816,2.816,-73.156,-54.686,-10.598
0.111,6.620,2.820,2.820,-73.163,-54.689,-10.628
0.113,6.664,2.828,2.828,-73.172,-54.712,-10.665
0.114,6.717,2.839,2.839,-73.181,-54.747,-10.703
0.115,6.773,2.849,2.849,-73.190,-54.790,-10.739
0.117,6.824,2.854,2.854,-73.195,-54.832,-10.768
0.118,6.864,2.851,2.851,-73.197,-54.867,-10.786
0.120,6.887,2.836,2.836,-73.192,-54.889,-10.789
0.121,6.907,2.806,2.806,-73.180,-54.891,-10.773
0.122,6.959,2.757,2.757,-73.159,-54.867,-10.732
0.124,7.054,2.691,2.691,-73.127,-54.809,-10.664
0.125,7.201,2.612,2.612,-73.083,-54.711,-10.563
0.126,7.405,2.522,2.522,-73.025,-54.570,-10.428
0.128,7.658,2.425,2.425,-72.956,-54.391,-10.263
0.129,7.947,2.324,2.324,-72.878,-54.185,-10.077
0.130,8.259,2.223,2.223,-72.794,-53.960,-9.876
0.132,8.584,2.124,2.124,-72.707,-53.725,-9.669
0.133,8.909,2.032,2.032,-72.618,-53.491,-9.463
0.135,9.221,1.947,1.947,-72.531,-53.266,-9.266
0.136,9.508,1.871,1.871,-72.447,-53.059,-9.084
0.137,9.759,1.806,1.806,-72.371,-52.881,-8.926
0.139,9.960,1.754,1.754,-72.303,-52.739,-8.799
0.140,10.104,1.715,1.715,-72.247,-52.642,-8.709
0.141,10.197,1.693,1.693,-72.202,-52.585,-8.651
0.143,10.251,1.688,1.688,-72.167,-52.561,-8.618
0.144,10.283,1.696,1.696,-72.141,-52.561,-8.600
0.146,10.309,1.713,1.713,-72.123,-52.578,-8.590
0.147,10.339,1.737,1.737,-72.112,-52.603,-8.580
0.148,10.372,1.763,1.763,-72.107,-52.630,-8.562
0.150,10.411,1.787,1.787,-72.107,-52.649,-8.527
0.151,10.471,1.806,1.806,-72.110,-52.654,-8.468
0.152,10.564,1.815,1.815,-72.116,-52.635,-8.377
0.154,10.704,1.816,1.816,-72.124,-52.587,-8.246
0.155,10.888,1.810,1.810,-72.133,-52.510,-8.079
0.157,11.106,1.798,1.798,-72.143,-52.411,-7.885
0.158,11.350,1.785,1.785,-72.153,-52.295,-7.671
0.159,11.608,1.770,1.770,-72.162,-52.168,-7.446
0.161,11.872,1.758,1.758,-72.171,-52.035,-7.218
0.162,12.131,1.749,1.749,-72.178,-51.902,-6.995
0.163,12.376,1.745,1.745,-72.184,-51.775,-6.787
0.165,12.595,1.746,1.746,-72.187,-51.659,-6.600
0.166,12.780,1.751,1.751,-72.188,-51.560,-6.444
0.168,12.921,1.761,1.761,-72.186,-51.484,-6.326
0.169,13.018,1.775,1.775,-72.180,-51.429,-6.246
0.170,13.078,1.793,1.793,-72.172,-51.394,-6.198
0.172,13.107,1.815,1.815,-72.163,-51.376,-6.177
0.173,13.120,1.840,1.840,-72.151,-51.371,-6.178
0.174,13.141,1.867,1.867,-72.139,-51.376,-6.195
0.176,13.174,1.894,1.894,-72.126,-51.388,-6.222
0.177,13.213,1.921,1.921,-72.113,-51.405,-6.255
0.179,13.252,1.945,1.945,-72.101,-51.423,-6.288
0.180,13.286,1.965,1.965,-72.090,-51.439,-6.315
0.181,13.308,1.980,1.980,-72.080,-51.450,-6.331
0.183,13.318,1.989,1.989,-72.071,-51.455,-6.335
0.184,13.329,1.991,1.991,-72.064,-51.456,-6.328
0.185,13.347,1.988,1.988,-72.056,-51.453,-6.313
0.187,13.372,1.982,1.982,-72.047,-51.447,-6.289
0.188,13.404,1.973,1.973,-72.038,-51.439,-6.260
0.190,13.440,1.964,1.964,-72.026,-51.430,-6.227
0.191,13.479,1.955,1.955,-72.012,-51.420,-6.192
0.192,13.520,1.949,1.949,-71.994,-51.412,-6.156
0.194,13.562,1.945,1.945,-71.972,-51.406,-6.121
0.195,13.604,1.943,1.943,-71.946,-51.402,-6.088
0.196,13.647,1.943,1.943,-71.915,-51.401,-6.059
0.198,13.692,1.943,1.943,-71.880,-51.401,-6.031
0.199,13.739,1.944,1.944,-71.841,-51.400,-6.003
0.201,13.790,1.944,1.944,-71.799,-51.398,-5.975
0.202,13.844,1.943,1.943,-71.755,-51.392,-5.945
0.203,13.903,1.939,1.939,-71.708,-51.381,-5.911
0.205,13.967,1.934,1.934,-71.661,-51.363,-5.872
0.206,14.038,1.925,1.925,-71.612,-51.337,-5.827
0.207,14.118,1.914,1.914,-71.562,-51.302,-5.775
0.209,14.209,1.900,1.900,-71.513,-51.255,-5.714
0.210,14.312,1.882,1.882,-71.465,-51.197,-5.643
0.212,14.427,1.860,1.860,-71.418,-51.128,-5.564
0.213,14.553,1.835,1.835,-71.374,-51.049,-5.477
0.214,14.689,1.806,1.806,-71.332,-50.962,-5.381
0.216,14.834,1.775,1.775,-71.295,-50.867,-5.279
0.217,14.987,1.743,1.743,-71.262,-50.765,-5.170
0.218,15.146,1.711,1.711,-71.234,-50.658,-5.054
0.220,15.312,1.681,1.681,-71.213,-50.547,-4.933
0.221,15.483,1.654,1.654,-71.198,-50.432,-4.807
0.223,15.659,1.631,1.631,-71.191,-50.315,-4.676
0.224,15.838,1.613,1.613,-71.192,-50.196,-4.542
0.225,16.019,1.598,1.598,-71.199,-50.076,-4.408
0.227,16.199,1.585,1.585,-71.210,-49.955,-4.275
0.228,16.377,1.573,1.573,-71.223,-49.832,-4.146
0.229,16.551,1.559,1.559,-71.236,-49.709,-4.024
0.231,16.719,1.544,1.544,-71.248,-49.584,-3.912
0.232,16.879,1.524,1.524,-71.257,-49.458,-3.813
0.234,17.031,1.500,1.500,-71.260,-49.332,-3.729
0.235,17.175,1.471,1.471,-71.257,-49.205,-3.662
0.236,17.312,1.437,1.437,-71.244,-49.077,-3.616
0.238,17.444,1.401,1.401,-71.221,-48.949,-3.591
0.239,17.576,1.362,1.362,-71.188,-48.821,-3.589
0.240,17.712,1.322,1.322,-71.146,-48.694,-3.608
0.242,17.853,1.280,1.280,-71.093,-48.568,-3.646
0.243,18.003,1.238,1.238,-71.032,-48.444,-3.705
0.245,18.162,1.197,1.197,-70.963,-48.324,-3.781
0.246,18.331,1.158,1.158,-70.885,-48.207,-3.876
0.247,18.511,1.122,1.122,-70.800,-48.094,-3.987
0.249,18.702,1.091,1.091,-70.707,-47.987,-4.115
0.250,18.904,1.065,1.065,-70.607,-47.884,-4.258
0.251,19.117,1.046,1.046,-70.501,-47.788,-4.416
0.253,19.338,1.034,1.034,-70.391,-47.698,-4.584
0.254,19.564,1.032,1.032,-70.279,-47.612,-4.761
0.255,19.793,1.036,1.036,-70.168,-47.531,-4.944
0.257,20.020,1.047,1.047,-70.060,-47.453,-5.128
0.258,20.243,1.062,1.062,-69.958,-47.377,-5.311
0.260,20.458,1.079,1.079,-69.864,-47.304,-5.490
0.261,20.663,1.099,1.099,-69.780,-47.231,-5.662
0.262,20.853,1.118,1.118,-69.709,-47.160,-5.824
0.264,21.027,1.136,1.136,-69.653,-47.088,-5.972
0.265,21.182,1.153,1.153,-69.615,-47.015,-6.104
0.266,21.321,1.169,1.169,-69.592,-46.942,-6.219
0.268,21.445,1.183,1.183,-69.584,-46.870,-6.320
0.269,21.556,1.198,1.198,-69.587,-46.801,-6.407
0.271,21.657,1.211,1.211,-69.599,-46.734,-6.481
0.272,21.747,1.225,1.225,-69.618,-46.672,-6.544
0.273,21.828,1.239,1.239,-69.643,-46.615,-6.595
0.275,21.899,1.253,1.253,-69.669,-46.564,-6.637
0.276,21.960,1.267,1.267,-69.697,-46.521,-6.671
0.277,22.010,1.279,1.279,-69.722,-46.487,-6.697
0.279,22.048,1.289,1.289,-69.743,-46.462,-6.717
0.280,22.075,1.297,1.297,-69.760,-46.446,-6.731
0.282,22.094,1.301,1.301,-69.772,-46.435,-6.740
0.283,22.104,1.301,1.301,-69.779,-46.430,-6.746
0.284,22.109,1.297,1.297,-69.782,-46.427,-6.748
0.286,22.113,1.291,1.291,-69.779,-46.424,-6.748
0.287,22.122,1.282,1.282,-69.771,-46.420,-6.746
0.288,22.137,1.273,1.273,-69.758,-46.413,-6.744
0.290,22.159,1.265,1.265,-69.739,-46.400,-6.741
0.291,22.191,1.259,1.259,-69.716,-46.380,-6.739
0.293,22.232,1.257,1.257,-69.686,-46.351,-6.739
0.294,22.283,1.260,1.260,-69.653,-46.312,-6.741
0.295,22.345,1.267,1.267,-69.617,-46.262,-6.744
0.297,22.415,1.275,1.275,-69.581,-46.202,-6.748
0.298,22.494,1.282,1.282,-69.546,-46.131,-6.754
0.299,22.582,1.287,1.287,-69.515,-46.050,-6.760
0.301,22.679,1.286,1.286,-69.489,-45.957,-6.768
0.302,22.785,1.277,1.277,-69.470,-45.852,-6.776
0.304,22.902,1.260,1.260,-69.460,-45.736,-6.784
0.305,23.030,1.232,1.232,-69.461,-45.608,-6.793
0.306,23.171,1.199,1.199,-69.475,-45.468,-6.802
0.308,23.323,1.162,1.162,-69.500,-45.319,-6.810
0.309,23.482,1.125,1.125,-69.533,-45.164,-6.816
0.310,23.643,1.092,1.092,-69.571,-45.007,-6.819
0.312,23.801,1.065,1.065,-69.609,-44.853,-6.816
0.313,23.952,1.048,1.048,-69.644,-44.707,-6.808
0.315,24.091,1.044,1.044,-69.672,-44.571,-6.792
0.316,24.215,1.049,1.049,-69.690,-44.452,-6.767
0.317,24.321,1.060,1.060,-69.693,-44.352,-6.731
0.319,24.412,1.075,1.075,-69.678,-44.275,-6.683
0.320,24.497,1.090,1.090,-69.642,-44.228,-6.623
0.321,24.594,1.103,1.103,-69.583,-44.208,-6.549
0.323,24.711,1.109,1.109,-69.506,-44.212,-6.462
0.324,24.849,1.106,1.106,-69.412,-44.234,-6.362
0.326,25.006,1.095,1.095,-69.306,-44.271,-6.252
0.327,25.180,1.079,1.079,-69.191,-44.316,-6.131
0.328,25.365,1.062,1.062,-69.069,-44.366,-6.000
0.330,25.559,1.047,1.047,-68.945,-44.416,-5.860
0.331,25.757,1.036,1.036,-68.821,-44.459,-5.711
0.332,25.957,1.034,1.034,-68.700,-44.493,-5.555
0.334,26.157,1.043,1.043,-68.587,-44.512,-5.393
0.335,26.354,1.064,1.064,-68.482,-44.513,-5.225
0.337,26.549,1.095,1.095,-68.386,-44.500,-5.055
0.338,26.740,1.132,1.132,-68.301,-44.476,-4.887
0.339,26.923,1.172,1.172,-68.225,-44.443,-4.723
0.341,27.097,1.212,1.212,-68.160,-44.403,-4.567
0.342,27.257,1.248,1.248,-68.105,-44.361,-4.423
0.343,27.401,1.277,1.277,-68.061,-44.318,-4.293
0.345,27.524,1.297,1.297,-68.028,-44.279,-4.180
0.346,27.624,1.309,1.309,-68.007,-44.244,-4.089
0.348,27.697,1.315,1.315,-67.997,-44.218,-4.022
0.349,27.742,1.315,1.315,-67.999,-44.202,-3.980
0.350,27.766,1.312,1.312,-68.008,-44.194,-3.959
0.352,27.780,1.307,1.307,-68.021,-44.192,-3.954
0.353,27.795,1.301,1.301,-68.034,-44.195,-3.962
0.354,27.814,1.298,1.298,-68.044,-44.200,-3.976
0.356,27.832,1.298,1.298,-68.047,-44.207,-3.993
0.357,27.849,1.302,1.302,-68.039,-44.212,-4.007
0.359,27.873,1.312,1.312,-68.016,-44.214,-4.015
0.360,27.914,1.331,1.331,-67.976,-44.211,-4.010
0.361,27.980,1.358,1.358,-67.914,-44.201,-3.990
0.363,28.076,1.397,1.397,-67.828,-44.184,-3.950
0.364,28.198,1.448,1.448,-67.721,-44.159,-3.895
0.365,28.341,1.511,1.511,-67.599,-44.129,-3.827
0.367,28.499,1.582,1.582,-67.465,-44.095,-3.753
0.368,28.665,1.656,1.656,-67.322,-44.057,-3.675
0.370,28.834,1.730,1.730,-67.177,-44.019,-3.598
0.371,29.001,1.798,1.798,-67.032,-43.980,-3.526
0.372,29.159,1.858,1.858,-66.891,-43.942,-3.463
0.374,29.304,1.903,1.903,-66.760,-43.906,-3.414
0.375,29.430,1.932,1.932,-66.642,-43.875,-3.383
0.376,29.536,1.944,1.944,-66.540,-43.848,-3.372
0.378,29.626,1.942,1.942,-66.453,-43.827,-3.381
0.379,29.708,1.929,1.929,-66.377,-43.809,-3.407
0.380,29.788,1.906,1.906,-66.309,-43.796,-3.448
0.382,29.871,1.877,1.877,-66.247,-43.787,-3.502
0.383,29.959,1.844,1.844,-66.187,-43.780,-3.566
0.385,30.053,1.809,1.809,-66.127,-43.777,-3.637
0.386,30.153,1.774,1.774,-66.063,-43.776,-3.715
0.387,30.260,1.740,1.740,-65.993,-43.777,-3.796
0.389,30.375,1.710,1.710,-65.913,-43.780,-3.877
0.390,30.497,1.685,1.685,-65.821,-43.785,-3.958
0.391,30.626,1.667,1.667,-65.718,-43.794,-4.035
0.393,30.759,1.657,1.657,-65.607,-43.808,-4.106
0.394,30.894,1.657,1.657,-65.489,-43.832,-4.169
0.396,31.031,1.668,1.668,-65.368,-43.868,-4.222
0.397,31.169,1.688,1.688,-65.246,-43.918,-4.263
0.398,31.311,1.715,1.715,-65.124,-43.986,-4.289
0.400,31.458,1.747,1.747,-65.006,-44.073,-4.298
0.401,31.615,1.783,1.783,-64.894,-44.183,-4.287
0.402,31.789,1.819,1.819,-64.790,-44.318,-4.255
0.404,31.984,1.855,1.855,-64.696,-44.480,-4.201
0.405,32.201,1.889,1.889,-64.612,-44.666,-4.126
0.407,32.434,1.919,1.919,-64.537,-44.868,-4.039
0.408,32.676,1.946,1.946,-64.469,-45.080,-3.944
0.409,32.919,1.969,1.969,-64.407,-45.295,-3.847
0.411,33.156,1.989,1.989,-64.350,-45.506,-3.756
0.412,33.379,2.004,2.004,-64.296,-45.706,-3.675
0.413,33.579,2.015,2.015,-64.245,-45.888,-3.610
0.415,33.750,2.021,2.021,-64.194,-46.046,-3.569
0.416,33.887,2.023,2.023,-64.143,-46.173,-3.556
0.418,33.994,2.021,2.021,-64.091,-46.263,-3.577
0.419,34.087,2.017,2.017,-64.036,-46.316,-3.632
0.420,34.189,2.012,2.012,-63.980,-46.337,-3.714
0.422,34.309,2.007,2.007,-63.922,-46.331,-3.819
0.423,34.448,2.002,2.002,-63.862,-46.304,-3.942
0.424,34.601,1.999,1.999,-63.802,-46.260,-4.076
0.426,34.765,1.999,1.999,-63.740,-46.205,-4.216
0.427,34.931,2.002,2.002,-63.678,-46.144,-4.358
0.429,35.095,2.007,2.007,-63.615,-46.081,-4.496
0.430,35.250,2.013,2.013,-63.552,-46.022,-4.624
0.431,35.390,2.022,2.022,-63.488,-45.971,-4.738
0.433,35.512,2.032,2.032,-63.425,-45.932,-4.835
0.434,35.619,2.043,2.043,-63.364,-45.901,-4.917
0.435,35.713,2.056,2.056,-63.305,-45.879,-4.987
0.437,35.794,2.069,2.069,-63.249,-45.864,-5.044
0.438,35.864,2.083,2.083,-63.198,-45.856,-5.092
0.440,35.924,2.098,2.098,-63.153,-45.852,-5.130
0.441,35.974,2.113,2.113,-63.114,-45.853,-5.162
0.442,36.014,2.129,2.129,-63.083,-45.856,-5.188
0.444,36.046,2.146,2.146,-63.061,-45.862,-5.210
0.445,36.071,2.162,2.162,-63.049,-45.868,-5.230
0.446,36.090,2.179,2.179,-63.044,-45.875,-5.248
0.448,36.109,2.194,2.194,-63.042,-45.880,-5.265
0.449,36.126,2.208,2.208,-63.038,-45.882,-5.282
0.451,36.146,2.219,2.219,-63.026,-45.882,-5.298
0.452,36.175,2.226,2.226,-63.002,-45.877,-5.314
0.453,36.221,2.230,2.230,-62.960,-45.867,-5.330
0.455,36.291,2.228,2.228,-62.895,-45.850,-5.348
0.456,36.388,2.220,2.220,-62.802,-45.825,-5.366
0.457,36.520,2.210,2.210,-62.676,-45.793,-5.385
0.459,36.691,2.200,2.200,-62.512,-45.750,-5.406
0.460,36.902,2.194,2.194,-62.309,-45.699,-5.429
0.462,37.144,2.193,2.193,-62.075,-45.641,-5.455
0.463,37.409,2.200,2.200,-61.818,-45.580,-5.482
0.464,37.689,2.220,2.220,-61.547,-45.519,-5.511
0.466,37.974,2.253,2.253,-61.269,-45.460,-5.543
0.467,38.257,2.299,2.299,-60.994,-45.407,-5.577
0.468,38.529,2.355,2.355,-60.728,-45.363,-5.613
0.470,38.782,2.415,2.415,-60.480,-45.330,-5.651
0.471,39.007,2.478,2.478,-60.259,-45.312,-5.692
0.473,39.199,2.538,2.538,-60.073,-45.311,-5.736
0.474,39.355,2.594,2.594,-59.924,-45.329,-5.781
0.475,39.482,2.640,2.640,-59.810,-45.362,-5.826
0.477,39.587,2.675,2.675,-59.724,-45.406,-5.867
0.478,39.675,2.701,2.701,-59.661,-45.457,-5.902
0.479,39.751,2.719,2.719,-59.614,-45.511,-5.928
0.481,39.817,2.729,2.729,-59.579,-45.564,-5.942
0.482,39.874,2.733,2.733,-59.549,-45.612,-5.942
0.484,39.926,2.732,2.732,-59.518,-45.652,-5.925
0.485,39.985,2.727,2.727,-59.482,-45.678,-5.887
0.486,40.062,2.720,2.720,-59.434,-45.688,-5.828
0.488,40.167,2.711,2.711,-59.370,-45.678,-5.744
0.489,40.301,2.702,2.702,-59.292,-45.653,-5.639
0.490,40.459,2.693,2.693,-59.201,-45.615,-5.515
0.492,40.638,2.686,2.686,-59.099,-45.570,-5.376
0.493,40.832,2.682,2.682,-58.988,-45.520,-5.224
0.495,41.038,2.681,2.681,-58.869,-45.470,-5.063
0.496,41.252,2.686,2.686,-58.746,-45.424,-4.895
0.497,41.468,2.697,2.697,-58.619,-45.386,-4.724
0.499,41.685,2.713,2.713,-58.490,-45.360,-4.552
0.500,41.897,2.734,2.734,-58.362,-45.350,-4.383
0.501,42.104,2.762,2.762,-58.236,-45.358,-4.219
0.503,42.307,2.796,2.796,-58.111,-45.384,-4.061
0.504,42.506,2.835,2.835,-57.988,-45.423,-3.910
0.505,42.701,2.881,2.881,-57.866,-45.474,-3.766
0.507,42.892,2.933,2.933,-57.746,-45.534,-3.631
0.508,43.079,2.989,2.989,-57.625,-45.600,-3.504
0.510,43.261,3.046,3.046,-57.505,-45.669,-3.385
0.511,43.437,3.104,3.104,-57.385,-45.738,-3.277
0.512,43.606,3.161,3.161,-57.265,-45.805,-3.179
0.514,43.768,3.215,3.215,-57.144,-45.867,-3.092
0.515,43.922,3.264,3.264,-57.022,-45.922,-3.015
0.516,44.068,3.307,3.307,-56.900,-45.968,-2.949
0.518,44.206,3.344,3.344,-56.781,-46.007,-2.890
0.519,44.336,3.377,3.377,-56.666,-46.037,-2.836
0.521,44.458,3.407,3.407,-56.557,-46.061,-2.786
0.522,44.572,3.435,3.435,-56.456,-46.077,-2.738
0.523,44.676,3.462,3.462,-56.365,-46.085,-2.688
0.525,44.771,3.491,3.491,-56.285,-46.087,-2.637
0.526,44.859,3.521,3.521,-56.218,-46.082,-2.580
0.527,44.942,3.553,3.553,-56.166,-46.070,-2.516
0.529,45.024,3.585,3.585,-56.131,-46.051,-2.444
0.530,45.110,3.616,3.616,-56.111,-46.027,-2.365
0.532,45.199,3.644,3.644,-56.104,-45.999,-2.281
0.533,45.291,3.669,3.669,-56.109,-45.968,-2.194
0.534,45.385,3.689,3.689,-56.122,-45.935,-2.107
0.536,45.478,3.702,3.702,-56.142,-45.903,-2.022
0.537,45.567,3.708,3.708,-56.166,-45.871,-1.943
0.538,45.649,3.709,3.709,-56.193,-45.842,-1.871
0.540,45.721,3.707,3.707,-56.219,-45.816,-1.808
0.541,45.780,3.703,3.703,-56.242,-45.796,-1.758
0.543,45.823,3.701,3.701,-56.262,-45.782,-1.723
0.544,45.850,3.701,3.701,-56.276,-45.774,-1.701
0.545,45.864,3.706,3.706,-56.285,-45.771,-1.691
0.547,45.869,3.717,3.717,-56.290,-45.772,-1.689
0.548,45.874,3.733,3.733,-56.291,-45.775,-1.694
0.549,45.884,3.754,3.754,-56.288,-45.779,-1.702
0.551,45.895,3.776,3.776,-56.282,-45.783,-1.711
0.552,45.908,3.799,3.799,-56.272,-45.785,-1.719
0.554,45.920,3.821,3.821,-56.260,-45.785,-1.722
0.555,45.935,3.841,3.841,-56.246,-45.781,-1.718
0.556,45.957,3.856,3.856,-56.230,-45.772,-1.705
0.558,45.990,3.867,3.867,-56.212,-45.757,-1.683
0.559,46.030,3.875,3.875,-56.191,-45.739,-1.653
0.560,46.079,3.880,3.880,-56.168,-45.718,-1.616
0.562,46.134,3.883,3.883,-56.140,-45.695,-1.575
0.563,46.193,3.887,3.887,-56.109,-45.671,-1.531
0.565,46.256,3.890,3.890,-56.073,-45.647,-1.485
0.566,46.321,3.895,3.895,-56.032,-45.624,-1.439
0.567,46.388,3.901,3.901,-55.985,-45.604,-1.396
0.569,46.457,3.910,3.910,-55.932,-45.587,-1.356
0.570,46.527,3.918,3.918,-55.873,-45.574,-1.321
