"T","Distance","Radius","FreeRadius","X","Y","Z"
0.000,0.000,1.118,1.118,214.207,178.981,206.131
0.001,0.085,1.135,1.135,214.270,179.006,206.078
0.002,0.170,1.151,1.151,214.332,179.032,206.026
0.004,0.254,1.166,1.166,214.393,179.057,205.975
0.005,0.336,1.180,1.180,214.452,179.084,205.926
0.006,0.415,1.190,1.190,214.510,179.110,205.878
0.007,0.491,1.198,1.198,214.565,179.137,205.832
0.008,0.564,1.202,1.202,214.617,179.165,205.790
0.009,0.633,1.201,1.201,214.666,179.194,205.751
0.011,0.697,1.195,1.195,214.711,179.224,205.716
0.012,0.757,1.184,1.184,214.752,179.254,205.684
0.013,0.814,1.172,1.172,214.791,179.281,205.654
0.014,0.869,1.158,1.158,214.832,179.302,205.622
0.015,0.928,1.146,1.146,214.876,179.311,205.585
0.017,0.995,1.138,1.138,214.926,179.306,205.540
0.018,1.080,1.134,1.134,214.985,179.282,205.484
0.019,1.190,1.139,1.139,215.056,179.236,205.414
0.020,1.332,1.152,1.152,215.141,179.163,205.326
0.021,1.513,1.177,1.177,215.242,179.059,205.219
0.023,1.735,1.210,1.210,215.362,178.923,205.090
0.024,1.991,1.251,1.251,215.496,178.761,204.944
0.025,2.270,1.297,1.297,215.639,178.581,204.787
0.026,2.560,1.346,1.346,215.787,178.391,204.625
0.027,2.850,1.395,1.395,215.935,178.199,204.465
0.028,3.130,1.442,1.442,216.077,178.013,204.312
0.030,3.388,1.486,1.486,216.210,177.841,204.173
0.031,3.614,1.524,1.524,216.327,177.690,204.052
0.032,3.795,1.554,1.554,216.424,177.569,203.958
0.033,3.926,1.578,1.578,216.499,177.484,203.893
0.034,4.011,1.596,1.596,216.552,177.431,203.854
0.036,4.057,1.609,1.609,216.587,177.405,203.837
0.037,4.078,1.617,1.617,216.608,177.402,203.838
0.038,4.101,1.621,1.621,216.617,177.418,203.853
0.039,4.138,1.621,1.621,216.618,177.447,203.876
0.040,4.185,1.619,1.619,216.614,177.484,203.903
0.041,4.235,1.614,1.614,216.608,177.526,203.930
0.043,4.282,1.608,1.608,216.603,177.567,203.953
0.044,4.322,1.604,1.604,216.603,177.604,203.968
0.045,4.354,1.602,1.602,216.608,177.634,203.977
0.046,4.383,1.605,1.605,216.623,177.658,203.980
0.047,4.413,1.613,1.613,216.649,177.675,203.980
0.049,4.453,1.630,1.630,216.688,177.683,203.979
0.050,4.507,1.656,1.656,216.742,177.682,203.977
0.051,4.580,1.693,1.693,216.814,177.671,203.977
0.052,4.675,1.741,1.741,216.906,177.649,203.980
0.053,4.794,1.799,1.799,217.019,177.615,203.988
0.055,4.938,1.863,1.863,217.156,177.570,204.003
0.056,5.103,1.933,1.933,217.311,177.515,204.023
0.057,5.284,2.005,2.005,217.479,177.455,204.047
0.058,5.474,2.079,2.079,217.656,177.392,204.076
0.059,5.667,2.150,2.150,217.836,177.328,204.109
0.060,5.859,2.218,2.218,218.014,177.268,204.144
0.062,6.043,2.280,2.280,218.186,177.214,204.181
0.063,6.213,2.336,2.336,218.345,177.169,204.219
0.064,6.364,2.387,2.387,218.488,177.136,204.258
0.065,6.494,2.433,2.433,218.611,177.118,204.297
0.066,6.604,2.473,2.473,218.714,177.111,204.335
0.068,6.696,2.510,2.510,218.798,177.113,204.371
0.069,6.773,2.543,2.543,218.866,177.121,204.406
0.070,6.836,2.572,2.572,218.918,177.133,204.439
0.071,6.886,2.598,2.598,218.957,177.145,204.469
0.072,6.924,2.621,2.621,218.983,177.155,204.495
0.073,6.952,2.641,2.641,218.997,177.160,204.518
0.075,6.971,2.658,2.658,219.002,177.156,204.537
0.076,6.990,2.671,2.671,218.999,177.144,204.551
0.077,7.013,2.681,2.681,218.990,177.126,204.561
0.078,7.037,2.686,2.686,218.980,177.105,204.568
0.079,7.059,2.688,2.688,218.971,177.085,204.571
0.081,7.074,2.685,2.685,218.967,177.071,204.572
0.082,7.081,2.677,2.677,218.970,177.065,204.571
0.083,7.096,2.665,2.665,218.983,177.071,204.568
0.084,7.131,2.649,2.649,219.010,177.093,204.565
0.085,7.192,2.629,2.629,219.054,177.135,204.561
0.086,7.279,2.606,2.606,219.116,177.196,204.558
0.088,7.379,2.580,2.580,219.188,177.265,204.559
0.089,7.480,2.551,2.551,219.264,177.331,204.568
0.090,7.570,2.520,2.520,219.336,177.381,204.589
0.091,7.645,2.486,2.486,219.397,177.403,204.626
0.092,7.717,2.451,2.451,219.440,177.386,204.682
0.094,7.823,2.415,2.415,219.457,177.317,204.761
0.095,7.994,2.380,2.380,219.441,177.184,204.867
0.096,8.250,2.346,2.346,219.385,176.975,205.003
0.097,8.598,2.316,2.316,219.286,176.687,205.171
0.098,9.021,2.289,2.289,219.153,176.334,205.362
0.100,9.497,2.267,2.267,218.995,175.935,205.569
0.101,10.004,2.251,2.251,218.824,175.508,205.784
0.102,10.521,2.243,2.243,218.648,175.072,205.998
0.103,11.026,2.241,2.241,218.478,174.643,206.203
0.104,11.496,2.245,2.245,218.324,174.241,206.391
0.105,11.910,2.256,2.256,218.196,173.882,206.554
0.107,12.246,2.271,2.271,218.104,173.587,206.684
0.108,12.493,2.290,2.290,218.053,173.363,206.776
0.109,12.661,2.313,2.313,218.037,173.206,206.833
0.110,12.767,2.338,2.338,218.050,173.105,206.861
0.111,12.831,2.366,2.366,218.085,173.051,206.864
0.113,12.886,2.394,2.394,218.136,173.037,206.846
0.114,12.956,2.423,2.423,218.195,173.052,206.813
0.115,13.040,2.451,2.451,218.256,173.088,206.768
0.116,13.130,2.477,2.477,218.312,173.136,206.716
0.117,13.216,2.499,2.499,218.356,173.186,206.662
0.118,13.291,2.517,2.517,218.385,173.232,206.609
0.120,13.353,2.529,2.529,218.400,173.267,206.562
0.121,13.398,2.535,2.535,218.405,173.289,206.522
0.122,13.427,2.533,2.533,218.400,173.291,206.494
0.123,13.455,2.523,2.523,218.391,173.269,206.479
0.124,13.507,2.505,2.505,218.378,173.218,206.481
0.126,13.594,2.480,2.480,218.364,173.135,206.504
0.127,13.724,2.449,2.449,218.353,173.014,206.548
0.128,13.902,2.410,2.410,218.346,172.850,206.619
0.129,14.130,2.365,2.365,218.346,172.644,206.716
0.130,14.396,2.315,2.315,218.351,172.406,206.835
0.132,14.688,2.259,2.259,218.361,172.147,206.969
0.133,14.995,2.198,2.198,218.376,171.877,207.114
0.134,15.304,2.134,2.134,218.394,171.607,207.264
0.135,15.603,2.070,2.070,218.415,171.349,207.414
0.136,15.882,2.006,2.006,218.437,171.112,207.558
0.137,16.127,1.945,1.945,218.461,170.908,207.692
0.139,16.327,1.889,1.889,218.485,170.748,207.809
0.140,16.478,1.839,1.839,218.509,170.635,207.908
0.141,16.590,1.798,1.798,218.530,170.562,207.989
0.142,16.671,1.768,1.768,218.549,170.520,208.056
0.143,16.731,1.748,1.748,218.563,170.499,208.111
0.145,16.777,1.737,1.737,218.570,170.490,208.155
0.146,16.814,1.733,1.733,218.571,170.484,208.192
0.147,16.849,1.734,1.734,218.562,170.472,208.224
0.148,16.894,1.740,1.740,218.543,170.445,208.253
0.149,16.961,1.748,1.748,218.513,170.392,208.282
0.150,17.056,1.756,1.756,218.471,170.312,208.312
0.152,17.174,1.764,1.764,218.420,170.211,208.346
0.153,17.309,1.771,1.771,218.364,170.095,208.385
0.154,17.452,1.774,1.774,218.303,169.974,208.431
0.155,17.597,1.776,1.776,218.242,169.854,208.485
0.156,17.738,1.775,1.775,218.183,169.744,208.549
0.158,17.870,1.771,1.771,218.129,169.649,208.625
0.159,17.993,1.764,1.764,218.083,169.579,208.714
0.160,18.110,1.755,1.755,218.047,169.541,208.819
0.161,18.232,1.743,1.743,218.023,169.537,208.939
0.162,18.368,1.727,1.727,218.009,169.560,209.072
0.164,18.521,1.710,1.710,218.005,169.605,209.218
0.165,18.687,1.691,1.691,218.009,169.663,209.374
0.166,18.863,1.673,1.673,218.019,169.727,209.538
0.167,19.046,1.656,1.656,218.035,169.791,209.708
0.168,19.231,1.642,1.642,218.055,169.848,209.883
0.169,19.415,1.633,1.633,218.078,169.891,210.060
0.171,19.595,1.629,1.629,218.103,169.912,210.238
0.172,19.774,1.633,1.633,218.128,169.909,210.414
0.173,19.950,1.644,1.644,218.153,169.885,210.587
0.174,20.122,1.661,1.661,218.179,169.844,210.753
0.175,20.290,1.683,1.683,218.204,169.790,210.909
0.177,20.449,1.708,1.708,218.229,169.727,211.053
0.178,20.598,1.734,1.734,218.253,169.659,211.183
0.179,20.732,1.759,1.759,218.277,169.589,211.295
0.180,20.849,1.782,1.782,218.299,169.521,211.388
0.181,20.944,1.801,1.801,218.319,169.460,211.457
0.182,21.017,1.814,1.814,218.338,169.407,211.504
0.184,21.072,1.820,1.820,218.354,169.363,211.533
0.185,21.114,1.822,1.822,218.368,169.326,211.548
0.186,21.146,1.820,1.820,218.380,169.297,211.553
0.187,21.169,1.816,1.816,218.387,169.275,211.552
0.188,21.185,1.811,1.811,218.391,169.260,211.550
0.190,21.194,1.805,1.805,218.391,169.251,211.552
0.191,21.205,1.801,1.801,218.387,169.248,211.561
0.192,21.228,1.799,1.799,218.377,169.251,211.583
0.193,21.267,1.801,1.801,218.362,169.259,211.618
0.194,21.321,1.806,1.806,218.341,169.270,211.666
0.195,21.387,1.813,1.813,218.312,169.283,211.724
0.197,21.466,1.821,1.821,218.274,169.297,211.792
0.198,21.556,1.831,1.831,218.228,169.311,211.868
0.199,21.657,1.841,1.841,218.171,169.322,211.951
0.200,21.768,1.851,1.851,218.102,169.329,212.038
0.201,21.889,1.859,1.859,218.021,169.332,212.128
0.203,22.021,1.867,1.867,217.927,169.328,212.220
0.204,22.162,1.872,1.872,217.821,169.317,212.312
0.205,22.312,1.877,1.877,217.706,169.299,212.407
0.206,22.467,1.881,1.881,217.587,169.275,212.503
0.207,22.625,1.887,1.887,217.468,169.246,212.603
0.209,22.784,1.893,1.893,217.352,169.210,212.705
0.210,22.941,1.902,1.902,217.243,169.170,212.812
0.211,23.096,1.914,1.914,217.146,169.125,212.923
0.212,23.246,1.930,1.930,217.064,169.076,213.039
0.213,23.393,1.950,1.950,217.001,169.023,213.161
0.214,23.539,1.973,1.973,216.960,168.967,213.289
0.216,23.683,1.999,1.999,216.937,168.909,213.420
0.217,23.828,2.027,2.027,216.934,168.852,213.552
0.218,23.972,2.055,2.055,216.947,168.796,213.685
0.219,24.117,2.082,2.082,216.977,168.743,213.816
0.220,24.260,2.108,2.108,217.021,168.695,213.943
0.222,24.401,2.132,2.132,217.079,168.653,214.065
0.223,24.540,2.153,2.153,217.150,168.618,214.180
0.224,24.676,2.169,2.169,217.231,168.593,214.286
0.225,24.809,2.182,2.182,217.320,168.576,214.382
0.226,24.937,2.191,2.191,217.414,168.563,214.468
0.227,25.058,2.198,2.198,217.509,168.553,214.543
0.229,25.169,2.202,2.202,217.599,168.540,214.608
0.230,25.269,2.203,2.203,217.681,168.521,214.661
0.231,25.354,2.202,2.202,217.750,168.494,214.703
0.232,25.427,2.199,2.199,217.803,168.453,214.733
0.233,25.495,2.194,2.194,217.835,168.397,214.752
0.235,25.571,2.187,2.187,217.842,168.321,214.758
0.236,25.666,2.179,2.179,217.826,168.228,214.755
0.237,25.777,2.170,2.170,217.792,168.123,214.749
0.238,25.894,2.158,2.158,217.747,168.014,214.746
0.239,26.011,2.146,2.146,217.698,167.909,214.753
0.241,26.119,2.132,2.132,217.651,167.813,214.774
0.242,26.216,2.116,2.116,217.613,167.735,214.817
0.243,26.308,2.099,2.099,217.591,167.682,214.888
0.244,26.415,2.082,2.082,217.591,167.660,214.993
0.245,26.563,2.064,2.064,217.620,167.676,215.138
0.246,26.763,2.048,2.048,217.678,167.730,215.322
0.248,27.009,2.035,2.035,217.760,167.813,215.537
0.249,27.290,2.025,2.025,217.863,167.918,215.777
0.250,27.594,2.021,2.021,217.979,168.035,216.032
0.251,27.910,2.022,2.022,218.105,168.157,216.295
0.252,28.226,2.031,2.031,218.235,168.274,216.559
0.254,28.531,2.047,2.047,218.364,168.378,216.815
0.255,28.814,2.070,2.070,218.487,168.461,217.055
0.256,29.064,2.098,2.098,218.599,168.515,217.273
0.257,29.281,2.128,2.128,218.699,168.538,217.464
0.258,29.469,2.158,2.158,218.786,168.537,217.630
0.259,29.633,2.187,2.187,218.864,168.517,217.774
0.261,29.776,2.211,2.211,218.933,168.487,217.895
0.262,29.899,2.229,2.229,218.993,168.450,217.996
0.263,30.005,2.238,2.238,219.048,168.415,218.078
0.264,30.091,2.239,2.239,219.098,168.387,218.144
0.265,30.161,2.233,2.233,219.144,168.372,218.193
0.267,30.218,2.222,2.222,219.188,168.377,218.229
0.268,30.272,2.208,2.208,219.231,168.401,218.254
0.269,30.329,2.193,2.193,219.273,168.435,218.271
0.270,30.388,2.179,2.179,219.315,168.473,218.284
0.271,30.444,2.169,2.169,219.359,168.506,218.297
0.273,30.497,2.164,2.164,219.404,168.526,218.315
0.274,30.551,2.166,2.166,219.452,168.527,218.340
0.275,30.620,2.176,2.176,219.504,168.499,218.377
0.276,30.719,2.191,2.191,219.559,168.436,218.430
0.277,30.861,2.210,2.210,219.619,168.329,218.502
0.278,31.045,2.233,2.233,219.684,168.182,218.591
0.280,31.262,2.259,2.259,219.750,168.003,218.693
0.281,31.499,2.285,2.285,219.815,167.802,218.803
0.282,31.747,2.312,2.312,219.879,167.591,218.915
0.283,31.992,2.337,2.337,219.938,167.379,219.023
0.284,32.224,2.361,2.361,219.990,167.176,219.123
0.286,32.432,2.382,2.382,220.033,166.992,219.208
0.287,32.603,2.401,2.401,220.065,166.837,219.275
0.288,32.728,2.417,2.417,220.085,166.721,219.316
0.289,32.806,2.430,2.430,220.092,166.645,219.335
0.290,32.849,2.440,2.440,220.092,166.602,219.335
0.291,32.870,2.446,2.446,220.087,166.585,219.325
0.293,32.887,2.448,2.448,220.083,166.588,219.308
0.294,32.909,2.446,2.446,220.082,166.604,219.292
0.295,32.933,2.441,2.441,220.089,166.625,219.283
0.296,32.961,2.434,2.434,220.108,166.645,219.286
0.297,33.004,2.426,2.426,220.142,166.658,219.308
0.299,33.074,2.417,2.417,220.196,166.656,219.353
0.300,33.176,2.410,2.410,220.268,166.638,219.423
0.301,33.303,2.405,2.405,220.353,166.604,219.511
0.302,33.449,2.402,2.402,220.447,166.557,219.613
0.303,33.609,2.404,2.404,220.546,166.496,219.723
0.305,33.775,2.411,2.411,220.644,166.424,219.836
0.306,33.942,2.421,2.421,220.737,166.342,219.948
0.307,34.104,2.434,2.434,220.821,166.251,220.052
0.308,34.256,2.448,2.448,220.890,166.151,220.144
0.309,34.395,2.463,2.463,220.940,166.045,220.219
0.310,34.524,2.477,2.477,220.973,165.935,220.276
0.312,34.646,2.490,2.490,220.994,165.823,220.319
0.313,34.762,2.500,2.500,221.008,165.712,220.350
0.314,34.871,2.505,2.505,221.021,165.606,220.373
0.315,34.973,2.508,2.508,221.039,165.507,220.390
0.316,35.067,2.506,2.506,221.066,165.418,220.405
0.318,35.156,2.503,2.503,221.108,165.341,220.420
0.319,35.245,2.497,2.497,221.171,165.281,220.439
0.320,35.346,2.489,2.489,221.259,165.239,220.464
0.321,35.466,2.481,2.481,221.372,165.214,220.496
0.322,35.606,2.472,2.472,221.507,165.203,220.531
0.323,35.762,2.463,2.463,221.658,165.201,220.568
0.325,35.930,2.454,2.454,221.822,165.205,220.605
0.326,36.106,2.447,2.447,221.995,165.210,220.639
0.327,36.285,2.439,2.439,222.171,165.213,220.668
0.328,36.463,2.432,2.432,222.348,165.210,220.690
0.329,36.636,2.425,2.425,222.521,165.197,220.703
0.331,36.803,2.419,2.419,222.685,165.171,220.704
0.332,36.964,2.413,2.413,222.841,165.130,220.695
0.333,37.122,2.407,2.407,222.988,165.077,220.678
0.334,37.278,2.401,2.401,223.128,165.011,220.656
0.335,37.434,2.396,2.396,223.262,164.935,220.631
0.336,37.589,2.391,2.391,223.390,164.850,220.608
0.338,37.746,2.386,2.386,223.514,164.757,220.589
0.339,37.902,2.383,2.383,223.635,164.658,220.575
0.340,38.060,2.381,2.381,223.753,164.553,220.571
0.341,38.219,2.381,2.381,223.869,164.445,220.579
0.342,38.381,2.382,2.382,223.985,164.333,220.600
0.344,38.546,2.385,2.385,224.100,164.219,220.630
0.345,38.715,2.390,2.390,224.216,164.103,220.670
0.346,38.887,2.397,2.397,224.334,163.986,220.717
0.347,39.063,2.408,2.408,224.453,163.869,220.771
0.348,39.242,2.422,2.422,224.576,163.753,220.830
0.350,39.424,2.439,2.439,224.702,163.638,220.892
0.351,39.608,2.461,2.461,224.832,163.524,220.956
0.352,39.794,2.486,2.486,224.967,163.414,221.020
0.353,39.980,2.517,2.517,225.106,163.307,221.084
0.354,40.162,2.553,2.553,225.243,163.205,221.145
0.355,40.337,2.593,2.593,225.378,163.109,221.204
0.357,40.502,2.636,2.636,225.505,163.020,221.258
0.358,40.651,2.679,2.679,225.622,162.940,221.307
0.359,40.783,2.723,2.723,225.725,162.870,221.349
0.360,40.893,2.763,2.764,225.811,162.811,221.383
0.361,40.977,2.800,2.801,225.877,162.764,221.408
0.363,41.033,2.832,2.832,225.919,162.731,221.423
0.364,41.065,2.856,2.856,225.941,162.709,221.429
0.365,41.078,2.873,2.872,225.946,162.697,221.429
0.366,41.086,2.882,2.882,225.941,162.692,221.426
0.367,41.099,2.886,2.886,225.929,162.692,221.421
0.368,41.113,2.886,2.886,225.916,162.693,221.417
0.370,41.122,2.885,2.884,225.906,162.694,221.418
0.371,41.129,2.882,2.882,225.906,162.692,221.424
0.372,41.151,2.881,2.881,225.918,162.685,221.440
0.373,41.194,2.883,2.883,225.949,162.671,221.467
0.374,41.258,2.888,2.889,225.996,162.649,221.504
0.376,41.336,2.898,2.899,226.054,162.624,221.550
0.377,41.425,2.911,2.913,226.120,162.597,221.603
0.378,41.517,2.926,2.928,226.188,162.571,221.659
0.379,41.608,2.941,2.943,226.254,162.549,221.719
0.380,41.694,2.955,2.957,226.313,162.532,221.779
0.382,41.770,2.967,2.968,226.361,162.525,221.837
0.383,41.833,2.975,2.976,226.393,162.529,221.892
0.384,41.887,2.978,2.978,226.405,162.546,221.941
0.385,41.940,2.976,2.975,226.403,162.574,221.986
0.386,41.997,2.972,2.969,226.399,162.609,222.030
0.387,42.056,2.970,2.964,226.402,162.647,222.076
0.389,42.121,2.972,2.965,226.424,162.683,222.126
0.390,42.203,2.984,2.976,226.475,162.713,222.183
0.391,42.317,3.007,3.000,226.565,162.733,222.249
0.392,42.479,3.047,3.041,226.705,162.739,222.329
0.393,42.701,3.106,3.104,226.907,162.726,222.423
0.395,42.996,3.189,3.192,227.178,162.691,222.535
0.396,43.355,3.293,3.303,227.509,162.636,222.661
0.397,43.760,3.414,3.432,227.883,162.565,222.797
0.398,44.193,3.544,3.572,228.284,162.482,222.938
0.399,44.635,3.678,3.715,228.694,162.391,223.078
0.400,45.070,3.810,3.856,229.096,162.297,223.212
0.402,45.478,3.934,3.987,229.474,162.205,223.336
0.403,45.841,4.044,4.103,229.810,162.117,223.444
0.404,46.142,4.133,4.196,230.087,162.040,223.531
0.405,46.364,4.197,4.261,230.290,161.976,223.592
0.406,46.512,4.238,4.301,230.425,161.925,223.630
0.408,46.601,4.262,4.321,230.503,161.887,223.647
0.409,46.645,4.270,4.325,230.536,161.858,223.647
0.410,46.670,4.269,4.317,230.538,161.838,223.633
0.411,46.703,4.261,4.303,230.520,161.824,223.609
0.412,46.743,4.250,4.285,230.496,161.816,223.578
0.414,46.783,4.242,4.270,230.476,161.811,223.544
0.415,46.818,4.239,4.261,230.474,161.808,223.509
0.416,46.859,4.243,4.260,230.501,161.805,223.478
0.417,46.921,4.253,4.266,230.556,161.801,223.450
0.418,47.004,4.268,4.277,230.635,161.799,223.425
0.419,47.106,4.285,4.291,230.734,161.796,223.401
0.421,47.222,4.304,4.308,230.847,161.795,223.377
0.422,47.348,4.323,4.325,230.972,161.794,223.354
0.423,47.481,4.340,4.341,231.102,161.796,223.329
0.424,47.616,4.355,4.355,231.234,161.799,223.303
0.425,47.748,4.366,4.365,231.363,161.804,223.274
0.427,47.874,4.372,4.372,231.485,161.811,223.242
0.428,47.990,4.374,4.375,231.596,161.818,223.210
0.429,48.091,4.373,4.374,231.694,161.821,223.184
0.430,48.174,4.369,4.370,231.776,161.819,223.169
0.431,48.237,4.361,4.362,231.837,161.807,223.171
0.432,48.289,4.350,4.352,231.877,161.783,223.194
0.434,48.353,4.337,4.338,231.891,161.744,223.243
0.435,48.454,4.322,4.321,231.877,161.687,223.324
0.436,48.603,4.305,4.302,231.832,161.608,223.442
0.437,48.807,4.287,4.283,231.754,161.506,223.601
0.438,49.059,4.269,4.263,231.650,161.384,223.795
0.440,49.344,4.252,4.245,231.526,161.249,224.014
0.441,49.650,4.238,4.230,231.393,161.106,224.249
0.442,49.963,4.226,4.219,231.259,160.961,224.491
0.443,50.269,4.218,4.213,231.132,160.820,224.732
0.444,50.555,4.215,4.215,231.020,160.690,224.961
0.445,50.807,4.218,4.224,230.934,160.576,225.169
0.447,51.015,4.225,4.239,230.880,160.484,225.347
0.448,51.171,4.235,4.258,230.866,160.418,225.488
0.449,51.287,4.247,4.279,230.887,160.376,225.594
0.450,51.378,4.258,4.300,230.934,160.354,225.668
0.451,51.459,4.268,4.318,230.998,160.344,225.717
0.453,51.537,4.275,4.330,231.071,160.343,225.745
0.454,51.610,4.277,4.336,231.144,160.346,225.757
0.455,51.674,4.272,4.332,231.207,160.346,225.759
0.456,51.720,4.261,4.318,231.253,160.339,225.754
0.457,51.748,4.245,4.296,231.272,160.319,225.748
0.459,51.787,4.225,4.268,231.257,160.283,225.746
0.460,51.853,4.203,4.238,231.214,160.233,225.747
0.461,51.943,4.180,4.206,231.147,160.173,225.750
0.462,52.048,4.159,4.176,231.065,160.107,225.755
0.463,52.162,4.141,4.149,230.975,160.039,225.760
0.464,52.275,4.127,4.128,230.883,159.973,225.764
0.466,52.380,4.119,4.115,230.797,159.913,225.767
0.467,52.468,4.115,4.108,230.723,159.864,225.767
0.468,52.533,4.115,4.107,230.669,159.829,225.763
0.469,52.567,4.117,4.109,230.640,159.812,225.756
0.470,52.580,4.120,4.113,230.632,159.810,225.745
0.472,52.596,4.121,4.116,230.640,159.819,225.734
0.473,52.620,4.120,4.116,230.657,159.832,225.723
0.474,52.646,4.114,4.113,230.677,159.848,225.716
0.475,52.667,4.103,4.103,230.693,159.859,225.714
0.476,52.677,4.085,4.086,230.701,159.863,225.719
0.477,52.695,4.062,4.064,230.692,159.855,225.733
0.479,52.741,4.034,4.036,230.663,159.830,225.758
0.480,52.822,4.003,4.005,230.607,159.785,225.795
0.481,52.933,3.968,3.970,230.529,159.722,225.844
0.482,53.068,3.933,3.934,230.435,159.646,225.902
