"T","Distance","Radius","FreeRadius","X","Y","Z"
0.000,0.000,1.118,1.118,214.207,178.981,206.131
0.001,0.084,1.132,1.132,214.269,179.006,206.079
0.002,0.168,1.145,1.145,214.330,179.031,206.028
0.003,0.250,1.157,1.157,214.390,179.056,205.978
0.004,0.331,1.168,1.168,214.449,179.082,205.929
0.006,0.409,1.177,1.177,214.505,179.108,205.881
0.007,0.484,1.183,1.183,214.560,179.135,205.837
0.008,0.556,1.187,1.187,214.612,179.162,205.795
0.009,0.625,1.187,1.187,214.660,179.190,205.756
0.010,0.689,1.183,1.183,214.705,179.219,205.721
0.011,0.748,1.175,1.175,214.746,179.249,205.689
0.012,0.804,1.163,1.163,214.785,179.277,205.659
0.013,0.859,1.151,1.151,214.824,179.298,205.628
0.014,0.915,1.140,1.140,214.866,179.310,205.593
0.016,0.979,1.131,1.131,214.914,179.309,205.551
0.017,1.058,1.127,1.127,214.970,179.290,205.498
0.018,1.160,1.129,1.129,215.037,179.250,205.433
0.019,1.291,1.139,1.139,215.116,179.185,205.351
0.020,1.458,1.160,1.160,215.212,179.091,205.251
0.021,1.665,1.191,1.191,215.325,178.967,205.130
0.022,1.908,1.234,1.234,215.453,178.814,204.991
0.023,2.177,1.284,1.284,215.592,178.642,204.839
0.024,2.459,1.339,1.339,215.736,178.457,204.681
0.025,2.746,1.398,1.398,215.882,178.268,204.522
0.027,3.027,1.457,1.457,216.025,178.082,204.368
0.028,3.291,1.513,1.513,216.159,177.906,204.225
0.029,3.527,1.566,1.566,216.281,177.748,204.098
0.030,3.725,1.611,1.611,216.386,177.616,203.994
0.031,3.875,1.646,1.646,216.469,177.517,203.918
0.032,3.978,1.672,1.672,216.530,177.451,203.869
0.033,4.040,1.690,1.690,216.573,177.414,203.843
0.034,4.070,1.701,1.701,216.600,177.401,203.836
0.035,4.088,1.705,1.705,216.614,177.408,203.844
0.037,4.118,1.706,1.706,216.619,177.430,203.863
0.038,4.159,1.703,1.703,216.617,177.463,203.888
0.039,4.208,1.698,1.698,216.611,177.503,203.916
0.040,4.257,1.692,1.692,216.606,177.544,203.941
0.041,4.300,1.687,1.687,216.602,177.583,203.960
0.042,4.336,1.684,1.684,216.604,177.617,203.973
0.043,4.366,1.683,1.683,216.613,177.645,203.979
0.044,4.394,1.686,1.686,216.631,177.665,203.981
0.045,4.426,1.694,1.694,216.661,177.679,203.980
0.047,4.470,1.708,1.708,216.705,177.684,203.978
0.048,4.529,1.728,1.728,216.764,177.679,203.977
0.049,4.607,1.757,1.757,216.840,177.665,203.977
0.050,4.707,1.794,1.794,216.937,177.640,203.982
0.051,4.832,1.841,1.841,217.056,177.604,203.992
0.052,4.980,1.898,1.898,217.195,177.556,204.007
0.053,5.147,1.962,1.962,217.352,177.501,204.028
0.054,5.328,2.032,2.032,217.520,177.440,204.054
0.055,5.516,2.105,2.105,217.695,177.378,204.083
0.056,5.707,2.179,2.179,217.872,177.316,204.116
0.058,5.894,2.252,2.252,218.047,177.257,204.151
0.059,6.073,2.323,2.323,218.214,177.205,204.188
0.060,6.238,2.388,2.388,218.369,177.163,204.225
0.061,6.384,2.446,2.446,218.507,177.133,204.264
0.062,6.509,2.496,2.496,218.625,177.116,204.301
0.063,6.615,2.538,2.538,218.724,177.111,204.339
0.064,6.704,2.573,2.573,218.805,177.114,204.374
0.065,6.778,2.602,2.602,218.871,177.122,204.409
0.066,6.839,2.624,2.624,218.921,177.134,204.441
0.068,6.888,2.641,2.641,218.958,177.146,204.470
0.069,6.925,2.653,2.653,218.983,177.155,204.496
0.070,6.952,2.661,2.661,218.997,177.160,204.518
0.071,6.971,2.666,2.666,219.002,177.156,204.537
0.072,6.990,2.668,2.668,218.999,177.144,204.551
0.073,7.012,2.668,2.668,218.991,177.126,204.561
0.074,7.036,2.667,2.667,218.981,177.106,204.567
0.075,7.058,2.666,2.666,218.972,177.086,204.571
0.076,7.073,2.665,2.665,218.967,177.072,204.572
0.078,7.081,2.666,2.666,218.969,177.065,204.571
0.079,7.094,2.669,2.669,218.981,177.069,204.569
0.080,7.126,2.675,2.675,219.006,177.089,204.565
0.081,7.182,2.685,2.685,219.047,177.128,204.561
0.082,7.264,2.699,2.699,219.105,177.185,204.558
0.083,7.361,2.717,2.717,219.175,177.253,204.558
0.084,7.461,2.737,2.737,219.250,177.319,204.565
0.085,7.553,2.758,2.758,219.322,177.373,204.584
0.086,7.630,2.778,2.778,219.385,177.401,204.616
0.087,7.699,2.797,2.797,219.432,177.394,204.667
0.089,7.792,2.813,2.813,219.455,177.340,204.739
0.090,7.942,2.824,2.824,219.449,177.226,204.836
0.091,8.169,2.830,2.830,219.405,177.042,204.961
0.092,8.486,2.829,2.829,219.319,176.780,205.118
0.093,8.882,2.822,2.822,219.197,176.450,205.300
0.094,9.336,2.810,2.810,219.049,176.070,205.500
0.095,9.828,2.794,2.794,218.884,175.657,205.710
0.096,10.336,2.774,2.774,218.711,175.228,205.921
0.097,10.840,2.752,2.752,218.541,174.801,206.128
0.099,11.319,2.728,2.728,218.382,174.393,206.320
0.100,11.751,2.704,2.704,218.244,174.021,206.491
0.101,12.116,2.680,2.680,218.138,173.703,206.634
0.102,12.396,2.658,2.658,218.070,173.452,206.740
0.103,12.594,2.638,2.638,218.040,173.269,206.811
0.104,12.725,2.620,2.620,218.041,173.145,206.851
0.105,12.804,2.605,2.605,218.066,173.072,206.866
0.106,12.858,2.595,2.595,218.109,173.040,206.857
0.107,12.919,2.588,2.588,218.164,173.041,206.832
0.109,12.995,2.587,2.587,218.224,173.067,206.793
0.110,13.081,2.592,2.592,218.282,173.109,206.745
0.111,13.169,2.603,2.603,218.333,173.158,206.692
0.112,13.250,2.621,2.621,218.370,173.206,206.639
0.113,13.319,2.643,2.643,218.393,173.248,206.589
0.114,13.373,2.668,2.668,218.403,173.278,206.545
0.115,13.411,2.691,2.691,218.404,173.292,206.510
0.116,13.436,2.710,2.710,218.397,173.286,206.487
0.117,13.470,2.721,2.721,218.386,173.255,206.478
0.118,13.532,2.720,2.720,218.373,173.195,206.486
0.120,13.630,2.706,2.706,218.360,173.101,206.515
0.121,13.772,2.674,2.674,218.350,172.970,206.567
0.122,13.962,2.622,2.622,218.345,172.796,206.644
0.123,14.198,2.550,2.550,218.347,172.584,206.746
0.124,14.467,2.464,2.464,218.353,172.343,206.867
0.125,14.760,2.367,2.367,218.364,172.084,207.002
0.126,15.063,2.266,2.266,218.380,171.817,207.146
0.127,15.366,2.164,2.164,218.398,171.553,207.294
0.128,15.658,2.066,2.066,218.419,171.302,207.441
0.130,15.927,1.976,1.976,218.441,171.074,207.582
0.131,16.162,1.901,1.901,218.465,170.880,207.712
0.132,16.351,1.844,1.844,218.489,170.729,207.824
0.133,16.495,1.806,1.806,218.512,170.624,207.919
0.134,16.600,1.785,1.785,218.533,170.556,207.997
0.135,16.678,1.778,1.778,218.550,170.517,208.062
0.136,16.735,1.781,1.781,218.564,170.498,208.114
0.137,16.780,1.792,1.792,218.571,170.490,208.158
0.138,16.817,1.807,1.807,218.570,170.484,208.194
0.140,16.851,1.823,1.823,218.562,170.472,208.225
0.141,16.895,1.837,1.837,218.543,170.444,208.254
0.142,16.961,1.847,1.847,218.513,170.392,208.282
0.143,17.055,1.849,1.849,218.472,170.314,208.312
0.144,17.171,1.846,1.846,218.422,170.214,208.345
0.145,17.303,1.839,1.839,218.366,170.101,208.383
0.146,17.443,1.827,1.827,218.307,169.982,208.427
0.147,17.586,1.813,1.813,218.247,169.863,208.480
0.148,17.725,1.797,1.797,218.189,169.753,208.542
0.150,17.857,1.781,1.781,218.135,169.659,208.616
0.151,17.978,1.764,1.764,218.088,169.587,208.702
0.152,18.094,1.749,1.749,218.051,169.544,208.803
0.153,18.213,1.737,1.737,218.026,169.536,208.919
0.154,18.345,1.726,1.726,218.011,169.555,209.049
0.155,18.492,1.718,1.718,218.005,169.595,209.190
0.156,18.653,1.712,1.712,218.008,169.650,209.342
0.157,18.825,1.708,1.708,218.017,169.713,209.501
0.158,19.004,1.707,1.707,218.031,169.777,209.668
0.159,19.185,1.709,1.709,218.050,169.835,209.839
0.161,19.367,1.714,1.714,218.072,169.881,210.013
0.162,19.546,1.721,1.721,218.096,169.908,210.188
0.163,19.722,1.731,1.731,218.120,169.912,210.362
0.164,19.896,1.743,1.743,218.145,169.894,210.534
0.165,20.067,1.756,1.756,218.171,169.859,210.699
0.166,20.234,1.771,1.771,218.196,169.810,210.857
0.167,20.394,1.784,1.784,218.220,169.751,211.003
0.168,20.544,1.798,1.798,218.244,169.685,211.137
0.169,20.682,1.809,1.809,218.268,169.616,211.254
0.171,20.804,1.819,1.819,218.290,169.548,211.353
0.172,20.907,1.825,1.825,218.311,169.485,211.431
0.173,20.988,1.828,1.828,218.330,169.429,211.486
0.174,21.050,1.828,1.828,218.347,169.382,211.522
0.175,21.097,1.825,1.825,218.362,169.342,211.542
0.176,21.132,1.821,1.821,218.374,169.310,211.551
0.177,21.159,1.816,1.816,218.384,169.285,211.552
0.178,21.178,1.811,1.811,218.390,169.266,211.551
0.179,21.190,1.806,1.806,218.392,169.254,211.550
0.181,21.198,1.803,1.803,218.390,169.249,211.555
0.182,21.214,1.801,1.801,218.383,169.249,211.569
0.183,21.244,1.803,1.803,218.372,169.254,211.596
0.184,21.288,1.806,1.806,218.354,169.263,211.636
0.185,21.347,1.812,1.812,218.331,169.276,211.688
0.186,21.417,1.820,1.820,218.299,169.289,211.750
0.187,21.499,1.828,1.828,218.259,169.303,211.820
0.188,21.592,1.838,1.838,218.210,169.316,211.897
0.189,21.694,1.847,1.847,218.150,169.326,211.980
0.190,21.806,1.857,1.857,218.078,169.331,212.066
0.192,21.929,1.866,1.866,217.995,169.331,212.155
0.193,22.061,1.874,1.874,217.898,169.325,212.245
0.194,22.202,1.881,1.881,217.790,169.312,212.336
0.195,22.351,1.887,1.887,217.676,169.292,212.428
0.196,22.504,1.894,1.894,217.558,169.266,212.523
0.197,22.660,1.901,1.901,217.440,169.235,212.621
0.198,22.816,1.909,1.909,217.327,169.199,212.722
0.199,22.971,1.918,1.918,217.222,169.159,212.828
0.200,23.122,1.929,1.929,217.129,169.114,212.940
0.202,23.271,1.943,1.943,217.052,169.067,213.057
0.203,23.416,1.959,1.959,216.995,169.016,213.181
0.204,23.560,1.977,1.977,216.958,168.964,213.310
0.205,23.705,1.998,1.998,216.940,168.910,213.443
0.206,23.849,2.020,2.020,216.940,168.857,213.577
0.207,23.993,2.043,2.043,216.955,168.804,213.710
0.208,24.136,2.067,2.067,216.986,168.753,213.840
0.209,24.276,2.091,2.091,217.030,168.705,213.964
0.210,24.413,2.114,2.114,217.086,168.661,214.080
0.212,24.544,2.137,2.137,217.153,168.622,214.187
0.213,24.670,2.158,2.158,217.229,168.589,214.281
0.214,24.789,2.177,2.177,217.311,168.561,214.363
0.215,24.904,2.195,2.195,217.398,168.537,214.434
0.216,25.013,2.212,2.212,217.485,168.516,214.496
0.217,25.116,2.227,2.227,217.570,168.495,214.550
0.218,25.211,2.241,2.241,217.649,168.473,214.599
0.219,25.298,2.254,2.254,217.720,168.449,214.644
0.220,25.376,2.266,2.266,217.779,168.421,214.686
0.221,25.446,2.277,2.277,217.823,168.386,214.728
0.223,25.512,2.288,2.288,217.849,168.344,214.771
0.224,25.579,2.297,2.297,217.856,168.294,214.816
0.225,25.654,2.305,2.305,217.847,168.235,214.861
0.226,25.736,2.311,2.311,217.825,168.169,214.905
0.227,25.826,2.314,2.314,217.794,168.096,214.946
0.228,25.922,2.313,2.313,217.756,168.017,214.984
0.229,26.022,2.308,2.308,217.713,167.931,215.015
0.230,26.126,2.299,2.299,217.671,167.839,215.040
0.231,26.233,2.283,2.283,217.630,167.742,215.056
0.233,26.340,2.262,2.262,217.595,167.641,215.062
0.234,26.450,2.235,2.235,217.567,167.534,215.059
0.235,26.565,2.203,2.203,217.547,167.422,215.050
0.236,26.687,2.171,2.171,217.534,167.301,215.042
0.237,26.818,2.139,2.139,217.527,167.170,215.039
0.238,26.960,2.110,2.110,217.527,167.028,215.046
0.239,27.118,2.087,2.087,217.532,166.872,215.069
0.240,27.294,2.072,2.072,217.543,166.701,215.113
0.241,27.495,2.068,2.068,217.559,166.514,215.182
0.243,27.725,2.076,2.076,217.580,166.308,215.282
0.244,27.987,2.098,2.098,217.605,166.084,215.416
0.245,28.274,2.132,2.132,217.635,165.847,215.577
0.246,28.578,2.174,2.174,217.672,165.606,215.757
0.247,28.889,2.221,2.221,217.716,165.366,215.950
0.248,29.197,2.271,2.271,217.767,165.135,216.147
0.249,29.493,2.320,2.320,217.827,164.921,216.342
0.250,29.767,2.366,2.366,217.896,164.729,216.526
0.251,30.012,2.404,2.404,217.976,164.568,216.692
0.252,30.220,2.433,2.433,218.066,164.444,216.833
0.254,30.390,2.449,2.449,218.167,164.361,216.942
0.255,30.532,2.455,2.455,218.274,164.312,217.021
0.256,30.653,2.455,2.455,218.379,164.282,217.072
0.257,30.757,2.450,2.450,218.477,164.260,217.100
0.258,30.844,2.445,2.445,218.560,164.233,217.106
0.259,30.921,2.443,2.443,218.622,164.189,217.095
0.260,31.007,2.447,2.447,218.657,164.115,217.068
0.261,31.129,2.460,2.460,218.658,163.999,217.030
0.262,31.310,2.484,2.484,218.617,163.829,216.984
0.264,31.565,2.524,2.524,218.532,163.595,216.931
0.265,31.886,2.577,2.577,218.406,163.305,216.875
0.266,32.255,2.640,2.640,218.248,162.976,216.814
0.267,32.656,2.711,2.711,218.070,162.624,216.750
0.268,33.069,2.786,2.786,217.879,162.264,216.683
0.269,33.476,2.862,2.862,217.686,161.912,216.613
0.270,33.860,2.937,2.937,217.500,161.584,216.542
0.271,34.201,3.008,3.008,217.330,161.296,216.470
0.272,34.484,3.071,3.071,217.186,161.065,216.397
0.274,34.692,3.123,3.123,217.075,160.903,216.325
0.275,34.833,3.165,3.165,216.998,160.808,216.256
0.276,34.923,3.197,3.197,216.947,160.767,216.194
0.277,34.981,3.218,3.218,216.917,160.765,216.145
0.278,35.027,3.231,3.231,216.899,160.792,216.111
0.279,35.070,3.234,3.234,216.889,160.832,216.099
0.280,35.114,3.229,3.229,216.880,160.873,216.111
0.281,35.167,3.217,3.217,216.865,160.902,216.152
0.282,35.247,3.197,3.197,216.837,160.906,216.227
0.283,35.373,3.171,3.171,216.791,160.872,216.339
0.285,35.550,3.140,3.140,216.725,160.798,216.486
0.286,35.767,3.104,3.104,216.644,160.692,216.657
0.287,36.015,3.066,3.066,216.550,160.560,216.845
0.288,36.283,3.028,3.028,216.446,160.408,217.039
0.289,36.559,2.991,2.991,216.336,160.243,217.232
0.290,36.833,2.957,2.957,216.222,160.073,217.414
0.291,37.093,2.928,2.928,216.110,159.904,217.576
0.292,37.329,2.904,2.904,216.000,159.742,217.708
0.293,37.532,2.888,2.888,215.898,159.594,217.803
0.295,37.703,2.881,2.881,215.804,159.463,217.858
0.296,37.849,2.881,2.881,215.717,159.347,217.877
0.297,37.979,2.888,2.888,215.638,159.245,217.865
0.298,38.102,2.901,2.901,215.565,159.154,217.827
0.299,38.223,2.920,2.920,215.498,159.073,217.766
0.300,38.346,2.944,2.944,215.437,158.999,217.688
0.301,38.472,2.972,2.972,215.380,158.933,217.597
0.302,38.600,3.004,3.004,215.328,158.870,217.499
0.303,38.728,3.039,3.039,215.280,158.810,217.396
0.305,38.854,3.076,3.076,215.235,158.753,217.294
0.306,38.976,3.114,3.114,215.192,158.697,217.195
0.307,39.091,3.151,3.151,215.152,158.643,217.101
0.308,39.198,3.187,3.187,215.113,158.592,217.016
0.309,39.294,3.221,3.221,215.076,158.544,216.941
0.310,39.379,3.251,3.251,215.039,158.500,216.879
0.311,39.450,3.275,3.275,215.002,158.459,216.833
0.312,39.509,3.294,3.294,214.965,158.422,216.806
0.313,39.560,3.305,3.305,214.927,158.389,216.799
0.315,39.610,3.307,3.307,214.888,158.362,216.814
0.316,39.669,3.302,3.302,214.846,158.340,216.848
0.317,39.738,3.288,3.288,214.801,158.324,216.899
0.318,39.819,3.266,3.266,214.753,158.316,216.964
0.319,39.911,3.237,3.237,214.700,158.316,217.039
0.320,40.013,3.199,3.199,214.642,158.325,217.122
0.321,40.123,3.153,3.153,214.578,158.344,217.210
0.322,40.242,3.100,3.100,214.507,158.374,217.300
0.323,40.368,3.039,3.039,214.428,158.416,217.390
0.324,40.502,2.970,2.970,214.341,158.468,217.477
0.326,40.643,2.895,2.895,214.245,158.528,217.560
0.327,40.789,2.815,2.815,214.140,158.591,217.641
0.328,40.940,2.731,2.731,214.025,158.652,217.717
0.329,41.095,2.643,2.643,213.900,158.706,217.791
0.330,41.255,2.554,2.554,213.763,158.749,217.861
0.331,41.419,2.464,2.464,213.615,158.777,217.927
0.332,41.592,2.373,2.373,213.455,158.784,217.990
0.333,41.775,2.284,2.284,213.282,158.766,218.049
0.334,41.974,2.198,2.198,213.096,158.720,218.105
0.336,42.187,2.115,2.115,212.903,158.649,218.156
0.337,42.410,2.038,2.038,212.706,158.556,218.203
0.338,42.638,1.967,1.967,212.509,158.446,218.245
0.339,42.868,1.906,1.906,212.319,158.322,218.282
0.340,43.094,1.855,1.855,212.140,158.189,218.313
0.341,43.310,1.815,1.815,211.976,158.050,218.339
0.342,43.511,1.789,1.789,211.833,157.910,218.359
0.343,43.693,1.778,1.778,211.714,157.773,218.371
0.344,43.852,1.782,1.782,211.625,157.642,218.378
0.346,43.990,1.800,1.800,211.561,157.519,218.377
0.347,44.110,1.828,1.828,211.518,157.407,218.371
0.348,44.215,1.863,1.863,211.490,157.307,218.360
0.349,44.305,1.900,1.900,211.472,157.221,218.344
0.350,44.379,1.937,1.937,211.459,157.150,218.324
0.351,44.439,1.969,1.969,211.446,157.097,218.300
0.352,44.487,1.994,1.994,211.427,157.062,218.273
0.353,44.531,2.007,2.007,211.397,157.049,218.244
0.354,44.587,2.006,2.006,211.351,157.057,218.213
0.355,44.662,1.989,1.989,211.287,157.085,218.182
0.357,44.756,1.961,1.961,211.207,157.126,218.156
0.358,44.867,1.921,1.921,211.110,157.175,218.136
0.359,44.992,1.872,1.872,210.996,157.227,218.126
0.360,45.131,1.815,1.815,210.867,157.276,218.129
0.361,45.284,1.752,1.752,210.721,157.318,218.148
0.362,45.452,1.685,1.685,210.559,157.346,218.187
0.363,45.639,1.616,1.616,210.382,157.355,218.247
0.364,45.850,1.547,1.547,210.191,157.341,218.333
0.365,46.083,1.478,1.478,209.987,157.304,218.442
0.367,46.334,1.411,1.411,209.779,157.248,218.570
0.368,46.596,1.347,1.347,209.571,157.177,218.711
0.369,46.860,1.287,1.287,209.369,157.096,218.861
0.370,47.120,1.232,1.232,209.179,157.008,219.015
0.371,47.367,1.183,1.183,209.007,156.919,219.169
0.372,47.594,1.142,1.142,208.859,156.831,219.316
0.373,47.792,1.109,1.109,208.740,156.751,219.454
0.374,47.956,1.086,1.086,208.657,156.681,219.576
0.375,48.086,1.072,1.072,208.608,156.623,219.681
0.377,48.189,1.066,1.066,208.586,156.573,219.769
0.378,48.275,1.065,1.065,208.586,156.530,219.843
0.379,48.347,1.067,1.067,208.599,156.490,219.901
0.380,48.410,1.072,1.072,208.618,156.450,219.947
0.381,48.466,1.077,1.077,208.637,156.409,219.980
0.382,48.519,1.080,1.080,208.648,156.363,220.001
0.383,48.573,1.080,1.080,208.645,156.309,220.012
0.384,48.642,1.074,1.074,208.620,156.245,220.013
0.385,48.732,1.063,1.063,208.571,156.170,220.007
0.386,48.843,1.049,1.049,208.499,156.087,219.998
0.388,48.972,1.033,1.033,208.407,155.996,219.990
0.389,49.118,1.018,1.018,208.297,155.899,219.987
0.390,49.278,1.007,1.007,208.173,155.800,219.995
0.391,49.449,1.001,1.001,208.036,155.699,220.016
0.392,49.631,1.002,1.002,207.889,155.599,220.057
0.393,49.824,1.013,1.013,207.734,155.501,220.120
0.394,50.030,1.036,1.036,207.575,155.409,220.210
0.395,50.248,1.072,1.072,207.413,155.321,220.328
0.396,50.476,1.117,1.117,207.252,155.240,220.468
0.398,50.709,1.170,1.170,207.095,155.163,220.621
0.399,50.940,1.229,1.229,206.945,155.092,220.782
0.400,51.163,1.289,1.289,206.805,155.025,220.942
0.401,51.372,1.350,1.350,206.678,154.963,221.095
0.402,51.558,1.409,1.409,206.567,154.905,221.234
0.403,51.716,1.462,1.462,206.476,154.851,221.351
0.404,51.839,1.507,1.507,206.407,154.801,221.440
0.405,51.926,1.543,1.543,206.362,154.754,221.496
0.406,51.982,1.570,1.570,206.334,154.714,221.524
0.408,52.018,1.589,1.589,206.318,154.682,221.530
0.409,52.044,1.601,1.601,206.308,154.660,221.520
0.410,52.069,1.605,1.605,206.297,154.652,221.499
0.411,52.101,1.604,1.604,206.279,154.658,221.474
0.412,52.147,1.597,1.597,206.249,154.683,221.450
0.413,52.215,1.586,1.586,206.199,154.727,221.433
0.414,52.316,1.571,1.571,206.124,154.793,221.428
0.415,52.454,1.552,1.552,206.020,154.882,221.442
0.416,52.626,1.532,1.532,205.890,154.991,221.472
0.417,52.826,1.511,1.511,205.739,155.115,221.519
0.419,53.048,1.489,1.489,205.574,155.248,221.582
0.420,53.284,1.468,1.468,205.398,155.387,221.658
0.421,53.528,1.449,1.449,205.219,155.526,221.748
0.422,53.774,1.433,1.433,205.041,155.661,221.850
0.423,54.014,1.420,1.420,204.869,155.786,221.962
0.424,54.245,1.412,1.412,204.709,155.898,222.085
0.425,54.461,1.409,1.409,204.565,155.992,222.216
0.426,54.662,1.411,1.411,204.439,156.068,222.352
0.427,54.848,1.416,1.416,204.330,156.129,222.491
0.429,55.020,1.424,1.424,204.237,156.176,222.627
0.430,55.176,1.433,1.433,204.160,156.211,222.759
0.431,55.315,1.443,1.443,204.099,156.237,222.881
0.432,55.436,1.453,1.453,204.053,156.254,222.991
0.433,55.535,1.461,1.461,204.022,156.265,223.085
0.434,55.612,1.466,1.466,204.005,156.272,223.159
0.435,55.663,1.467,1.467,204.002,156.276,223.211
0.436,55.694,1.466,1.466,204.008,156.278,223.241
0.437,55.711,1.462,1.462,204.018,156.278,223.255
0.439,55.720,1.456,1.457,204.027,156.275,223.255
0.440,55.731,1.450,1.450,204.029,156.270,223.245
0.441,55.750,1.445,1.445,204.018,156.263,223.231
0.442,55.785,1.440,1.440,203.989,156.253,223.214
0.443,55.841,1.437,1.437,203.936,156.241,223.200
0.444,55.924,1.437,1.437,203.855,156.226,223.192
0.445,56.040,1.441,1.440,203.740,156.209,223.194
0.446,56.188,1.448,1.447,203.594,156.189,223.206
0.447,56.359,1.457,1.457,203.425,156.168,223.226
0.449,56.546,1.469,1.469,203.241,156.147,223.252
0.450,56.741,1.482,1.482,203.050,156.126,223.281
0.451,56.935,1.496,1.496,202.859,156.106,223.314
