"T","Distance","Radius","FreeRadius","X","Y","Z"
0.000,0.000,1.375,1.375,231.675,178.831,249.344
0.003,0.505,1.628,1.628,232.059,178.669,249.628
0.007,1.007,1.898,1.898,232.442,178.509,249.911
0.010,1.503,2.200,2.200,232.820,178.350,250.190
0.014,1.990,2.542,2.542,233.191,178.195,250.465
0.017,2.466,2.912,2.912,233.554,178.043,250.732
0.021,2.926,3.294,3.294,233.906,177.897,250.991
0.024,3.370,3.671,3.671,234.245,177.756,251.240
0.028,3.793,4.035,4.035,234.568,177.623,251.478
0.031,4.193,4.379,4.379,234.875,177.497,251.702
0.034,4.566,4.700,4.700,235.161,177.381,251.910
0.038,4.910,5.010,5.010,235.426,177.274,252.102
0.041,5.222,5.321,5.321,235.668,177.178,252.276
0.045,5.499,5.618,5.618,235.883,177.095,252.429
0.048,5.738,5.837,5.837,236.069,177.024,252.560
0.052,5.936,5.912,5.912,236.226,176.968,252.668
0.055,6.094,5.836,5.836,236.352,176.926,252.752
0.059,6.214,5.692,5.692,236.452,176.898,252.814
0.062,6.299,5.570,5.570,236.526,176.885,252.854
0.066,6.356,5.509,5.509,236.579,176.887,252.873
0.069,6.393,5.487,5.487,236.613,176.903,252.874
0.072,6.433,5.479,5.479,236.631,176.935,252.857
0.076,6.491,5.475,5.475,236.635,176.981,252.823
0.079,6.570,5.479,5.479,236.629,177.042,252.773
0.083,6.670,5.497,5.497,236.615,177.118,252.709
0.086,6.791,5.525,5.525,236.596,177.208,252.632
0.090,6.931,5.554,5.554,236.574,177.314,252.543
0.093,7.089,5.578,5.578,236.553,177.435,252.442
0.097,7.265,5.579,5.579,236.536,177.571,252.332
0.100,7.457,5.541,5.541,236.524,177.722,252.214
0.103,7.665,5.446,5.446,236.521,177.888,252.088
0.107,7.886,5.308,5.308,236.526,178.066,251.957
0.110,8.118,5.156,5.156,236.537,178.253,251.821
0.114,8.357,5.020,5.020,236.554,178.447,251.683
0.117,8.600,4.902,4.902,236.576,178.645,251.543
0.121,8.844,4.799,4.799,236.601,178.844,251.404
0.124,9.086,4.704,4.704,236.629,179.041,251.267
0.128,9.322,4.618,4.618,236.659,179.233,251.133
0.131,9.548,4.544,4.544,236.688,179.417,251.004
0.134,9.763,4.481,4.481,236.718,179.591,250.883
0.138,9.961,4.431,4.431,236.745,179.752,250.769
0.141,10.141,4.393,4.393,236.770,179.896,250.665
0.145,10.298,4.365,4.365,236.790,180.021,250.573
0.148,10.429,4.342,4.342,236.806,180.124,250.493
0.152,10.531,4.317,4.317,236.816,180.202,250.428
0.155,10.605,4.286,4.286,236.821,180.256,250.377
0.159,10.655,4.257,4.257,236.820,180.289,250.340
0.162,10.684,4.237,4.237,236.815,180.305,250.317
0.166,10.698,4.232,4.232,236.808,180.307,250.305
0.169,10.710,4.237,4.237,236.799,180.298,250.304
0.172,10.731,4.245,4.245,236.789,180.282,250.314
0.176,10.760,4.251,4.251,236.780,180.263,250.333
0.179,10.794,4.256,4.256,236.772,180.244,250.361
0.183,10.833,4.260,4.260,236.767,180.228,250.396
0.186,10.875,4.265,4.265,236.765,180.220,250.437
0.190,10.923,4.273,4.273,236.768,180.222,250.485
0.193,10.978,4.286,4.286,236.777,180.238,250.537
0.197,11.046,4.300,4.300,236.792,180.273,250.593
0.200,11.130,4.301,4.301,236.816,180.328,250.652
0.203,11.235,4.277,4.277,236.848,180.407,250.713
0.207,11.360,4.226,4.226,236.888,180.508,250.776
0.210,11.505,4.160,4.160,236.935,180.628,250.840
0.214,11.666,4.094,4.094,236.989,180.766,250.904
0.217,11.841,4.034,4.034,237.048,180.917,250.969
0.221,12.028,3.979,3.979,237.113,181.081,251.032
0.224,12.224,3.929,3.929,237.181,181.254,251.094
0.228,12.426,3.885,3.885,237.253,181.433,251.155
0.231,12.632,3.848,3.848,237.327,181.616,251.213
0.234,12.839,3.822,3.822,237.403,181.801,251.268
0.238,13.045,3.806,3.806,237.479,181.985,251.319
0.241,13.246,3.799,3.799,237.556,182.165,251.367
0.245,13.440,3.800,3.800,237.632,182.338,251.410
0.248,13.625,3.802,3.802,237.706,182.503,251.448
0.252,13.797,3.799,3.799,237.778,182.656,251.480
0.255,13.956,3.783,3.783,237.847,182.797,251.506
0.259,14.103,3.761,3.761,237.913,182.926,251.527
0.262,14.237,3.740,3.740,237.976,183.043,251.543
0.266,14.359,3.731,3.731,238.034,183.150,251.555
0.269,14.469,3.733,3.733,238.089,183.246,251.563
0.272,14.569,3.741,3.741,238.140,183.332,251.568
0.276,14.659,3.750,3.750,238.186,183.408,251.570
0.279,14.738,3.761,3.761,238.228,183.476,251.569
0.283,14.808,3.773,3.773,238.265,183.535,251.567
0.286,14.868,3.785,3.785,238.296,183.586,251.563
0.290,14.919,3.796,3.796,238.322,183.630,251.558
0.293,14.962,3.806,3.806,238.343,183.666,251.552
0.297,14.996,3.813,3.813,238.358,183.697,251.547
0.300,15.023,3.817,3.817,238.366,183.721,251.542
0.303,15.042,3.818,3.818,238.369,183.741,251.538
0.307,15.057,3.815,3.815,238.366,183.755,251.535
0.310,15.070,3.809,3.809,238.360,183.766,251.533
0.314,15.081,3.802,3.802,238.352,183.773,251.533
0.317,15.091,3.793,3.793,238.344,183.779,251.535
0.321,15.100,3.784,3.784,238.337,183.782,251.539
0.324,15.109,3.776,3.776,238.332,183.785,251.546
0.328,15.118,3.768,3.768,238.331,183.787,251.556
0.331,15.132,3.763,3.763,238.335,183.790,251.568
0.334,15.152,3.761,3.761,238.347,183.794,251.584
0.338,15.180,3.762,3.762,238.367,183.801,251.603
0.341,15.218,3.768,3.768,238.396,183.810,251.625
0.345,15.269,3.776,3.776,238.437,183.823,251.652
0.348,15.333,3.784,3.784,238.491,183.840,251.683
0.352,15.413,3.785,3.785,238.559,183.862,251.718
0.355,15.508,3.773,3.773,238.641,183.889,251.758
0.359,15.615,3.747,3.747,238.734,183.921,251.801
0.362,15.734,3.716,3.716,238.837,183.957,251.846
0.366,15.860,3.686,3.686,238.947,183.998,251.893
0.369,15.993,3.662,3.662,239.063,184.043,251.941
0.372,16.129,3.640,3.640,239.181,184.090,251.989
0.376,16.267,3.621,3.621,239.300,184.141,252.037
0.379,16.403,3.603,3.603,239.417,184.195,252.082
0.383,16.537,3.587,3.587,239.530,184.250,252.126
0.386,16.665,3.572,3.572,239.637,184.308,252.166
0.390,16.786,3.559,3.559,239.736,184.367,252.201
0.393,16.897,3.546,3.546,239.825,184.427,252.233
0.397,16.998,3.533,3.533,239.901,184.488,252.258
0.400,17.086,3.518,3.518,239.962,184.550,252.277
0.403,17.163,3.497,3.497,240.006,184.612,252.288
0.407,17.232,3.468,3.468,240.035,184.673,252.293
0.410,17.297,3.433,3.433,240.051,184.736,252.292
0.414,17.361,3.400,3.400,240.056,184.799,252.285
0.417,17.426,3.374,3.374,240.051,184.864,252.272
0.421,17.496,3.352,3.352,240.038,184.930,252.256
0.424,17.569,3.329,3.329,240.020,184.997,252.235
0.428,17.645,3.299,3.299,239.998,185.067,252.211
0.431,17.726,3.267,3.267,239.973,185.139,252.184
0.434,17.809,3.237,3.237,239.949,185.213,252.155
0.438,17.895,3.211,3.211,239.927,185.290,252.125
0.441,17.983,3.188,3.188,239.909,185.370,252.093
0.445,18.073,3.164,3.164,239.896,185.453,252.061
0.448,18.166,3.137,3.137,239.890,185.540,252.028
0.452,18.262,3.104,3.104,239.895,185.631,251.997
0.455,18.362,3.066,3.066,239.908,185.725,251.966
0.459,18.467,3.022,3.022,239.931,185.823,251.935
0.462,18.577,2.976,2.976,239.960,185.925,251.905
0.466,18.692,2.934,2.934,239.996,186.029,251.874
0.469,18.812,2.897,2.897,240.036,186.137,251.842
0.472,18.935,2.866,2.866,240.079,186.248,251.808
0.476,19.062,2.837,2.837,240.124,186.361,251.773
0.479,19.192,2.812,2.812,240.170,186.477,251.736
0.483,19.324,2.789,2.789,240.216,186.595,251.697
0.486,19.459,2.772,2.772,240.259,186.715,251.654
0.490,19.595,2.757,2.757,240.299,186.836,251.609
0.493,19.732,2.743,2.743,240.335,186.960,251.559
0.497,19.871,2.725,2.725,240.365,187.084,251.506
0.500,20.012,2.703,2.703,240.388,187.210,251.448
0.503,20.154,2.680,2.680,240.403,187.337,251.385
0.507,20.297,2.658,2.658,240.411,187.464,251.319
0.510,20.441,2.640,2.640,240.412,187.590,251.249
0.514,20.584,2.628,2.628,240.407,187.714,251.178
0.517,20.726,2.625,2.625,240.398,187.836,251.106
0.521,20.865,2.630,2.630,240.384,187.954,251.034
0.524,21.001,2.641,2.641,240.368,188.068,250.962
0.528,21.131,2.658,2.658,240.350,188.176,250.893
0.531,21.254,2.678,2.678,240.330,188.278,250.827
0.534,21.370,2.700,2.700,240.310,188.374,250.765
0.538,21.476,2.724,2.724,240.291,188.461,250.707
0.541,21.571,2.748,2.748,240.273,188.539,250.656
0.545,21.655,2.769,2.769,240.258,188.608,250.611
0.548,21.725,2.787,2.787,240.245,188.666,250.574
0.552,21.779,2.801,2.801,240.237,188.713,250.546
0.555,21.820,2.810,2.810,240.234,188.748,250.527
0.559,21.848,2.814,2.814,240.234,188.773,250.515
0.562,21.865,2.814,2.814,240.237,188.789,250.510
0.566,21.875,2.811,2.811,240.242,188.798,250.510
0.569,21.884,2.806,2.806,240.250,188.800,250.514
0.572,21.895,2.799,2.799,240.258,188.797,250.521
0.576,21.909,2.791,2.791,240.267,188.790,250.529
0.579,21.925,2.784,2.784,240.276,188.781,250.538
0.583,21.941,2.778,2.778,240.284,188.769,250.546
0.586,21.956,2.774,2.774,240.291,188.758,250.553
0.590,21.968,2.772,2.772,240.296,188.747,250.556
0.593,21.977,2.774,2.774,240.299,188.739,250.555
0.597,21.985,2.784,2.784,240.298,188.734,250.549
0.600,21.998,2.800,2.800,240.293,188.734,250.536
0.603,22.021,2.819,2.819,240.284,188.740,250.515
0.607,22.053,2.838,2.838,240.272,188.750,250.488
0.610,22.092,2.851,2.851,240.256,188.765,250.455
0.614,22.138,2.859,2.859,240.237,188.784,250.418
0.617,22.188,2.859,2.859,240.217,188.805,250.377
0.621,22.241,2.852,2.852,240.196,188.828,250.334
0.624,22.296,2.842,2.842,240.175,188.852,250.290
0.628,22.351,2.831,2.831,240.154,188.876,250.245
0.631,22.405,2.822,2.822,240.133,188.900,250.201
0.634,22.456,2.815,2.815,240.115,188.923,250.159
0.638,22.503,2.811,2.811,240.098,188.943,250.120
0.641,22.545,2.809,2.809,240.085,188.960,250.085
0.645,22.579,2.808,2.808,240.075,188.974,250.055
0.648,22.605,2.807,2.807,240.070,188.983,250.032
0.652,22.621,2.804,2.804,240.069,188.987,250.015
0.655,22.632,2.799,2.799,240.074,188.985,250.006
0.659,22.642,2.792,2.792,240.082,188.980,250.003
0.662,22.655,2.784,2.784,240.092,188.972,250.004
0.666,22.671,2.776,2.776,240.104,188.963,250.008
0.669,22.688,2.769,2.769,240.117,188.954,250.015
0.672,22.703,2.765,2.765,240.128,188.946,250.022
0.676,22.716,2.762,2.762,240.137,188.941,250.029
0.679,22.724,2.759,2.759,240.144,188.939,250.034
0.683,22.728,2.759,2.759,240.146,188.943,250.035
0.686,22.739,2.761,2.761,240.143,188.953,250.032
0.690,22.761,2.768,2.768,240.133,188.970,250.024
0.693,22.796,2.773,2.773,240.115,188.997,250.008
0.697,22.847,2.767,2.767,240.089,189.033,249.984
0.700,22.916,2.743,2.743,240.053,189.082,249.951
0.703,23.004,2.700,2.700,240.007,189.142,249.907
0.707,23.111,2.640,2.640,239.951,189.215,249.853
0.710,23.234,2.565,2.565,239.887,189.300,249.792
0.714,23.372,2.480,2.480,239.817,189.397,249.722
0.717,23.523,2.393,2.393,239.742,189.504,249.648
0.721,23.685,2.309,2.309,239.663,189.623,249.568
0.724,23.858,2.229,2.229,239.583,189.752,249.486
0.728,24.039,2.155,2.155,239.503,189.890,249.401
0.731,24.228,2.089,2.089,239.424,190.039,249.315
0.734,24.422,2.041,2.041,239.349,190.196,249.230
0.738,24.621,2.022,2.022,239.277,190.362,249.147
0.741,24.824,2.032,2.032,239.212,190.537,249.067
0.745,25.030,2.049,2.049,239.154,190.720,248.991
0.748,25.239,2.050,2.050,239.106,190.910,248.921
0.752,25.449,2.021,2.021,239.068,191.107,248.858
0.755,25.662,1.979,1.979,239.041,191.311,248.802
0.759,25.876,1.942,1.942,239.024,191.519,248.752
0.762,26.091,1.923,1.923,239.015,191.729,248.710
0.766,26.305,1.924,1.924,239.014,191.940,248.673
0.769,26.517,1.946,1.946,239.019,192.149,248.642
0.772,26.726,1.987,1.987,239.029,192.356,248.616
0.776,26.929,2.044,2.044,239.042,192.558,248.594
0.779,27.126,2.110,2.110,239.059,192.754,248.577
0.783,27.315,2.183,2.183,239.077,192.941,248.564
0.786,27.493,2.266,2.266,239.095,193.118,248.555
0.790,27.659,2.359,2.359,239.112,193.282,248.548
0.793,27.811,2.452,2.452,239.127,193.434,248.545
0.797,27.947,2.520,2.520,239.139,193.569,248.543
0.800,28.065,2.540,2.540,239.146,193.687,248.543
0.803,28.165,2.516,2.516,239.148,193.787,248.545
0.807,28.247,2.475,2.475,239.145,193.870,248.548
0.810,28.316,2.442,2.442,239.136,193.937,248.552
0.814,28.373,2.426,2.426,239.122,193.992,248.558
0.817,28.422,2.423,2.423,239.103,194.037,248.566
0.821,28.466,2.428,2.428,239.080,194.073,248.574
0.824,28.508,2.440,2.440,239.051,194.103,248.584
0.828,28.551,2.456,2.456,239.019,194.129,248.596
0.831,28.597,2.476,2.476,238.982,194.153,248.608
0.834,28.647,2.502,2.502,238.941,194.178,248.622
0.838,28.702,2.535,2.535,238.896,194.205,248.638
0.841,28.763,2.576,2.576,238.847,194.237,248.655
0.845,28.830,2.615,2.615,238.795,194.275,248.673
0.848,28.906,2.637,2.637,238.739,194.323,248.693
0.852,28.992,2.630,2.630,238.680,194.382,248.714
0.855,29.089,2.603,2.603,238.617,194.452,248.736
0.859,29.195,2.570,2.570,238.552,194.533,248.756
0.862,29.310,2.542,2.542,238.484,194.624,248.773
0.866,29.433,2.525,2.525,238.414,194.724,248.786
0.869,29.563,2.520,2.520,238.341,194.831,248.791
0.872,29.700,2.529,2.529,238.265,194.946,248.788
0.876,29.843,2.551,2.551,238.187,195.066,248.774
0.879,29.993,2.586,2.586,238.108,195.190,248.748
0.883,30.151,2.636,2.636,238.026,195.318,248.708
0.886,30.315,2.715,2.715,237.943,195.449,248.653
0.890,30.489,2.837,2.837,237.858,195.582,248.579
0.893,30.673,2.997,2.997,237.771,195.715,248.486
0.897,30.869,3.151,3.151,237.683,195.848,248.372
0.900,31.079,3.250,3.250,237.595,195.980,248.235
0.903,31.305,3.277,3.277,237.505,196.109,248.073
0.907,31.545,3.274,3.274,237.415,196.235,247.889
0.910,31.798,3.287,3.287,237.325,196.358,247.687
0.914,32.062,3.341,3.341,237.236,196.476,247.469
0.917,32.334,3.430,3.430,237.149,196.590,247.238
0.921,32.611,3.544,3.544,237.065,196.698,246.997
0.924,32.891,3.677,3.677,236.983,196.801,246.749
0.928,33.171,3.824,3.824,236.905,196.896,246.498
0.931,33.448,3.980,3.980,236.832,196.985,246.247
0.934,33.719,4.147,4.147,236.763,197.066,245.997
0.938,33.981,4.331,4.331,236.700,197.138,245.753
0.941,34.231,4.537,4.537,236.644,197.202,245.518
0.945,34.466,4.741,4.741,236.595,197.256,245.294
0.948,34.684,4.899,4.899,236.553,197.300,245.085
0.952,34.881,4.971,4.971,236.519,197.333,244.893
0.955,35.058,4.970,4.970,236.494,197.355,244.720
0.959,35.215,4.945,4.945,236.477,197.368,244.564
0.962,35.356,4.941,4.941,236.467,197.371,244.424
0.966,35.482,4.965,4.965,236.464,197.366,244.298
0.969,35.595,5.005,5.005,236.466,197.354,244.186
0.972,35.698,5.047,5.047,236.474,197.334,244.085
0.976,35.792,5.091,5.091,236.487,197.309,243.995
0.979,35.880,5.140,5.140,236.504,197.278,243.914
0.983,35.964,5.199,5.199,236.524,197.242,243.841
0.986,36.044,5.260,5.260,236.548,197.203,243.775
0.990,36.123,5.313,5.313,236.574,197.161,243.714
0.993,36.200,5.353,5.353,236.602,197.116,243.657
0.997,36.277,5.380,5.380,236.631,197.070,243.603
1.000,36.354,5.402,5.402,236.660,197.023,243.550
