"T","Distance","Radius","FreeRadius","X","Y","Z"
0.000,0.000,1.516,1.516,186.349,208.050,211.299
0.001,0.105,1.594,1.594,186.371,208.101,211.388
0.002,0.210,1.670,1.670,186.392,208.151,211.477
0.004,0.312,1.743,1.743,186.413,208.201,211.565
0.005,0.412,1.812,1.812,186.434,208.248,211.650
0.006,0.508,1.874,1.874,186.454,208.295,211.732
0.007,0.600,1.929,1.929,186.473,208.338,211.810
0.008,0.686,1.976,1.976,186.492,208.379,211.884
0.010,0.766,2.011,2.011,186.509,208.417,211.952
0.011,0.839,2.035,2.035,186.525,208.451,212.015
0.012,0.904,2.047,2.047,186.540,208.480,212.070
0.013,0.960,2.051,2.051,186.553,208.506,212.118
0.014,1.008,2.047,2.047,186.567,208.529,212.159
0.016,1.051,2.039,2.039,186.583,208.551,212.191
0.017,1.090,2.029,2.029,186.603,208.574,212.216
0.018,1.131,2.018,2.018,186.629,208.601,212.232
0.019,1.178,2.010,2.010,186.663,208.633,212.240
0.020,1.237,2.005,2.005,186.707,208.673,212.240
0.022,1.312,2.006,2.006,186.763,208.722,212.231
0.023,1.405,2.012,2.012,186.832,208.782,212.213
0.024,1.520,2.022,2.022,186.916,208.856,212.187
0.025,1.659,2.035,2.035,187.017,208.944,212.152
0.027,1.816,2.050,2.050,187.131,209.043,212.110
0.028,1.986,2.067,2.067,187.256,209.150,212.063
0.029,2.164,2.085,2.085,187.386,209.259,212.013
0.030,2.343,2.103,2.103,187.519,209.368,211.962
0.031,2.518,2.119,2.119,187.650,209.472,211.911
0.033,2.682,2.134,2.134,187.776,209.566,211.863
0.034,2.831,2.148,2.148,187.893,209.647,211.820
0.035,2.958,2.161,2.161,187.997,209.711,211.784
0.036,3.059,2.172,2.172,188.084,209.753,211.756
0.037,3.132,2.181,2.181,188.153,209.771,211.738
0.039,3.181,2.188,2.188,188.201,209.770,211.730
0.040,3.214,2.194,2.194,188.231,209.756,211.729
0.041,3.239,2.197,2.197,188.242,209.735,211.734
0.042,3.263,2.198,2.198,188.237,209.714,211.744
0.043,3.294,2.195,2.195,188.214,209.698,211.758
0.045,3.336,2.188,2.188,188.175,209.694,211.775
0.046,3.395,2.176,2.176,188.121,209.709,211.792
0.047,3.476,2.159,2.159,188.053,209.748,211.809
0.048,3.585,2.134,2.134,187.970,209.818,211.823
0.049,3.728,2.102,2.102,187.874,209.923,211.835
0.051,3.901,2.061,2.061,187.766,210.059,211.844
0.052,4.100,2.013,2.013,187.647,210.218,211.851
0.053,4.319,1.958,1.958,187.517,210.394,211.857
0.054,4.551,1.900,1.900,187.379,210.580,211.862
0.055,4.792,1.843,1.843,187.232,210.770,211.867
0.057,5.034,1.790,1.790,187.077,210.957,211.873
0.058,5.273,1.744,1.744,186.917,211.135,211.880
0.059,5.504,1.707,1.707,186.751,211.295,211.888
0.060,5.723,1.683,1.683,186.581,211.433,211.899
0.061,5.928,1.675,1.675,186.408,211.542,211.914
0.063,6.123,1.683,1.683,186.234,211.627,211.931
0.064,6.311,1.705,1.705,186.059,211.691,211.952
0.065,6.493,1.739,1.739,185.885,211.741,211.976
0.066,6.670,1.784,1.784,185.715,211.781,212.003
0.067,6.842,1.836,1.836,185.549,211.816,212.034
0.069,7.010,1.895,1.895,185.389,211.851,212.069
0.070,7.172,1.959,1.959,185.236,211.891,212.108
0.071,7.330,2.025,2.025,185.093,211.941,212.151
0.072,7.485,2.093,2.093,184.960,212.005,212.197
0.073,7.640,2.161,2.161,184.839,212.089,212.248
0.075,7.797,2.227,2.227,184.729,212.188,212.301
0.076,7.955,2.291,2.291,184.631,212.299,212.356
0.077,8.113,2.352,2.352,184.543,212.417,212.410
0.078,8.267,2.408,2.408,184.466,212.539,212.464
0.080,8.415,2.458,2.458,184.398,212.660,212.515
0.081,8.554,2.501,2.501,184.339,212.777,212.563
0.082,8.680,2.536,2.536,184.288,212.884,212.605
0.083,8.789,2.564,2.564,184.245,212.978,212.642
0.084,8.878,2.585,2.585,184.210,213.054,212.670
0.086,8.944,2.601,2.601,184.182,213.110,212.690
0.087,8.989,2.611,2.611,184.160,213.148,212.702
0.088,9.016,2.618,2.618,184.143,213.169,212.707
0.089,9.031,2.621,2.621,184.131,213.177,212.707
0.090,9.041,2.622,2.622,184.123,213.174,212.702
0.092,9.056,2.621,2.621,184.117,213.162,212.694
0.093,9.076,2.619,2.619,184.114,213.146,212.684
0.094,9.098,2.616,2.616,184.111,213.126,212.673
0.095,9.121,2.613,2.613,184.110,213.106,212.662
0.096,9.141,2.609,2.609,184.107,213.089,212.652
0.098,9.156,2.606,2.606,184.104,213.077,212.644
0.099,9.165,2.604,2.604,184.100,213.070,212.639
0.100,9.172,2.602,2.602,184.095,213.069,212.635
0.101,9.179,2.601,2.601,184.089,213.073,212.634
0.102,9.191,2.601,2.601,184.083,213.083,212.634
0.104,9.209,2.603,2.603,184.077,213.100,212.636
0.105,9.233,2.605,2.605,184.070,213.123,212.639
0.106,9.263,2.609,2.609,184.064,213.152,212.643
0.107,9.300,2.613,2.613,184.059,213.189,212.648
0.108,9.344,2.619,2.619,184.054,213.232,212.654
0.110,9.395,2.625,2.625,184.049,213.282,212.661
0.111,9.451,2.631,2.631,184.046,213.338,212.668
0.112,9.512,2.638,2.638,184.042,213.398,212.675
0.113,9.575,2.646,2.646,184.039,213.461,212.682
0.114,9.640,2.654,2.654,184.037,213.525,212.688
0.116,9.704,2.662,2.662,184.034,213.589,212.694
0.117,9.766,2.670,2.670,184.031,213.651,212.698
0.118,9.826,2.678,2.678,184.027,213.710,212.701
0.119,9.880,2.685,2.685,184.023,213.764,212.702
0.120,9.929,2.693,2.693,184.018,213.813,212.701
0.122,9.971,2.700,2.700,184.013,213.854,212.698
0.123,10.006,2.706,2.706,184.006,213.889,212.693
0.124,10.035,2.712,2.712,183.999,213.916,212.687
0.125,10.060,2.717,2.717,183.991,213.938,212.680
0.127,10.080,2.721,2.721,183.983,213.955,212.673
0.128,10.097,2.724,2.723,183.974,213.967,212.665
0.129,10.111,2.725,2.725,183.965,213.975,212.658
0.130,10.123,2.725,2.725,183.955,213.979,212.652
0.131,10.134,2.724,2.724,183.945,213.980,212.648
0.133,10.144,2.721,2.721,183.935,213.979,212.646
0.134,10.155,2.717,2.717,183.925,213.976,212.646
0.135,10.165,2.712,2.712,183.915,213.972,212.647
0.136,10.175,2.706,2.707,183.906,213.970,212.649
0.137,10.183,2.700,2.701,183.898,213.970,212.651
0.139,10.190,2.694,2.694,183.892,213.974,212.652
0.140,10.201,2.688,2.689,183.889,213.984,212.651
0.141,10.218,2.683,2.684,183.887,214.001,212.647
0.142,10.245,2.680,2.679,183.889,214.027,212.640
0.143,10.283,2.677,2.676,183.894,214.063,212.628
0.145,10.335,2.676,2.675,183.903,214.110,212.610
0.146,10.401,2.676,2.675,183.917,214.171,212.587
0.147,10.478,2.679,2.677,183.933,214.241,212.560
0.148,10.564,2.683,2.681,183.950,214.320,212.531
0.149,10.655,2.690,2.688,183.967,214.405,212.502
0.151,10.748,2.699,2.698,183.983,214.492,212.476
0.152,10.839,2.710,2.710,183.994,214.581,212.455
0.153,10.926,2.724,2.726,184.001,214.667,212.442
0.154,11.008,2.738,2.742,184.001,214.748,212.438
0.155,11.084,2.751,2.757,183.994,214.823,212.445
0.157,11.154,2.762,2.770,183.976,214.888,212.467
0.158,11.226,2.769,2.779,183.948,214.942,212.504
0.159,11.303,2.770,2.781,183.909,214.987,212.554
0.160,11.388,2.763,2.776,183.861,215.026,212.613
0.161,11.481,2.748,2.761,183.805,215.063,212.677
0.163,11.579,2.722,2.735,183.743,215.101,212.742
0.164,11.681,2.689,2.700,183.674,215.143,212.805
0.165,11.786,2.650,2.660,183.601,215.193,212.861
0.166,11.894,2.608,2.616,183.525,215.254,212.909
0.167,12.009,2.567,2.573,183.445,215.329,212.942
0.169,12.132,2.529,2.533,183.365,215.421,212.959
0.170,12.270,2.497,2.499,183.283,215.532,212.956
0.171,12.422,2.474,2.474,183.203,215.659,212.937
0.172,12.584,2.463,2.462,183.125,215.798,212.909
0.173,12.751,2.463,2.462,183.049,215.944,212.876
0.175,12.918,2.472,2.471,182.978,216.092,212.845
0.176,13.080,2.486,2.484,182.912,216.237,212.820
0.177,13.231,2.501,2.499,182.852,216.376,212.808
0.178,13.369,2.514,2.512,182.799,216.503,212.813
0.180,13.491,2.520,2.520,182.756,216.613,212.841
0.181,13.603,2.518,2.518,182.721,216.703,212.899
0.182,13.717,2.503,2.503,182.697,216.769,212.989
0.183,13.846,2.473,2.473,182.682,216.813,213.109
0.184,13.992,2.430,2.430,182.672,216.839,213.253
0.186,14.156,2.377,2.378,182.667,216.850,213.416
0.187,14.334,2.318,2.318,182.663,216.849,213.594
0.188,14.521,2.254,2.254,182.658,216.841,213.781
0.189,14.714,2.189,2.189,182.650,216.828,213.973
0.190,14.906,2.126,2.126,182.637,216.815,214.164
0.192,15.093,2.068,2.068,182.616,216.805,214.350
0.193,15.271,2.018,2.018,182.586,216.801,214.525
0.194,15.438,1.975,1.975,182.544,216.806,214.686
0.195,15.593,1.940,1.940,182.492,216.819,214.833
0.196,15.740,1.911,1.911,182.433,216.838,214.965
0.198,15.877,1.889,1.888,182.369,216.862,215.084
0.199,16.005,1.871,1.870,182.303,216.889,215.190
0.200,16.123,1.857,1.857,182.237,216.917,215.285
0.201,16.232,1.847,1.847,182.174,216.944,215.369
0.202,16.328,1.840,1.840,182.116,216.968,215.442
0.204,16.412,1.835,1.835,182.066,216.988,215.506
0.205,16.481,1.831,1.832,182.025,217.002,215.560
0.206,16.536,1.829,1.830,181.997,217.008,215.607
0.207,16.580,1.827,1.828,181.979,217.008,215.647
0.208,16.615,1.825,1.826,181.971,217.001,215.680
0.210,16.646,1.822,1.823,181.971,216.990,215.709
0.211,16.676,1.818,1.818,181.978,216.975,215.734
0.212,16.707,1.812,1.812,181.989,216.957,215.757
0.213,16.740,1.804,1.803,182.004,216.936,215.778
0.214,16.773,1.794,1.792,182.020,216.915,215.799
0.216,16.808,1.783,1.781,182.036,216.894,215.820
0.217,16.842,1.772,1.768,182.052,216.874,215.843
0.218,16.876,1.760,1.756,182.064,216.856,215.869
0.219,16.910,1.749,1.745,182.073,216.840,215.897
0.220,16.943,1.738,1.735,182.078,216.826,215.927
0.222,16.976,1.730,1.729,182.079,216.814,215.958
0.223,17.009,1.723,1.725,182.074,216.803,215.989
0.224,17.043,1.718,1.724,182.064,216.795,216.020
0.225,17.077,1.715,1.725,182.047,216.788,216.049
0.227,17.114,1.712,1.728,182.023,216.783,216.077
0.228,17.155,1.708,1.731,181.992,216.779,216.103
0.229,17.200,1.704,1.733,181.953,216.777,216.125
0.230,17.251,1.699,1.734,181.906,216.777,216.144
0.231,17.308,1.690,1.733,181.851,216.778,216.161
0.233,17.371,1.679,1.729,181.790,216.781,216.176
0.234,17.438,1.664,1.721,181.724,216.785,216.192
0.235,17.510,1.646,1.710,181.655,216.790,216.209
0.236,17.584,1.625,1.696,181.584,216.797,216.229
0.237,17.661,1.601,1.679,181.512,216.805,216.253
0.239,17.739,1.574,1.660,181.440,216.814,216.282
0.240,17.819,1.545,1.639,181.369,216.824,216.317
0.241,17.900,1.514,1.616,181.301,216.835,216.361
0.242,17.984,1.481,1.593,181.237,216.847,216.413
0.243,18.071,1.447,1.568,181.175,216.861,216.474
0.245,18.164,1.411,1.544,181.114,216.878,216.541
0.246,18.262,1.376,1.519,181.050,216.897,216.613
0.247,18.367,1.340,1.493,180.983,216.920,216.690
0.248,18.479,1.306,1.468,180.910,216.948,216.771
0.249,18.599,1.273,1.442,180.829,216.982,216.853
0.251,18.728,1.243,1.417,180.739,217.021,216.936
0.252,18.867,1.215,1.392,180.637,217.067,217.018
0.253,19.018,1.191,1.368,180.521,217.120,217.099
0.254,19.181,1.170,1.344,180.391,217.181,217.178
0.255,19.356,1.153,1.320,180.251,217.250,217.255
0.257,19.537,1.139,1.297,180.105,217.325,217.332
0.258,19.722,1.126,1.274,179.959,217.407,217.411
0.259,19.907,1.116,1.251,179.817,217.493,217.492
0.260,20.089,1.107,1.228,179.684,217.584,217.578
0.261,20.266,1.098,1.205,179.566,217.678,217.670
0.263,20.436,1.090,1.182,179.468,217.775,217.768
0.264,20.600,1.082,1.160,179.394,217.875,217.876
0.265,20.761,1.074,1.138,179.349,217.975,217.993
0.266,20.925,1.069,1.119,179.338,218.077,218.122
0.267,21.097,1.068,1.105,179.355,218.178,218.260
0.269,21.279,1.071,1.097,179.396,218.277,218.407
0.270,21.470,1.080,1.096,179.455,218.373,218.561
0.271,21.668,1.097,1.104,179.527,218.465,218.722
0.272,21.870,1.121,1.123,179.605,218.551,218.886
0.273,22.072,1.155,1.153,179.686,218.631,219.054
0.275,22.271,1.198,1.194,179.762,218.703,219.223
0.276,22.464,1.247,1.244,179.829,218.766,219.392
0.277,22.648,1.301,1.300,179.882,218.818,219.561
0.278,22.822,1.358,1.360,179.915,218.860,219.726
0.280,22.987,1.416,1.421,179.931,218.891,219.888
0.281,23.144,1.473,1.481,179.931,218.913,220.043
0.282,23.294,1.526,1.537,179.918,218.927,220.192
0.283,23.436,1.574,1.588,179.894,218.935,220.332
0.284,23.570,1.616,1.631,179.862,218.937,220.462
0.286,23.694,1.652,1.668,179.824,218.935,220.579
0.287,23.806,1.683,1.698,179.783,218.930,220.684
0.288,23.905,1.710,1.724,179.741,218.923,220.774
0.289,23.989,1.732,1.745,179.701,218.916,220.847
0.290,24.057,1.751,1.762,179.663,218.909,220.903
0.292,24.110,1.767,1.776,179.631,218.904,220.945
0.293,24.152,1.781,1.788,179.603,218.902,220.975
0.294,24.184,1.793,1.799,179.580,218.904,220.997
0.295,24.210,1.805,1.809,179.562,218.911,221.015
0.296,24.234,1.815,1.819,179.551,218.925,221.031
0.298,24.263,1.826,1.828,179.546,218.947,221.049
0.299,24.301,1.837,1.838,179.548,218.977,221.073
0.300,24.354,1.848,1.849,179.558,219.018,221.105
0.301,24.424,1.861,1.862,179.575,219.070,221.148
0.302,24.514,1.876,1.876,179.600,219.134,221.206
0.304,24.619,1.893,1.892,179.630,219.206,221.277
0.305,24.735,1.911,1.911,179.662,219.283,221.358
0.306,24.857,1.932,1.932,179.692,219.359,221.448
0.307,24.979,1.955,1.955,179.718,219.432,221.543
0.308,25.099,1.979,1.979,179.736,219.497,221.641
0.310,25.211,2.005,2.004,179.743,219.550,221.741
0.311,25.316,2.031,2.031,179.737,219.586,221.839
0.312,25.415,2.058,2.058,179.712,219.603,221.933
0.313,25.515,2.085,2.085,179.667,219.594,222.021
0.314,25.625,2.113,2.113,179.600,219.559,222.102
0.316,25.753,2.139,2.139,179.513,219.500,222.175
0.317,25.897,2.163,2.163,179.411,219.422,222.241
0.318,26.055,2.184,2.184,179.298,219.330,222.301
0.319,26.222,2.201,2.201,179.179,219.227,222.356
0.320,26.392,2.212,2.212,179.057,219.120,222.407
0.322,26.560,2.216,2.216,178.937,219.012,222.454
0.323,26.721,2.213,2.213,178.823,218.908,222.498
0.324,26.867,2.201,2.201,178.720,218.814,222.541
0.325,26.994,2.182,2.182,178.631,218.732,222.582
0.327,27.098,2.159,2.159,178.560,218.668,222.623
0.328,27.181,2.135,2.135,178.508,218.621,222.666
0.329,27.248,2.112,2.112,178.472,218.587,222.711
0.330,27.305,2.093,2.093,178.453,218.565,222.761
0.331,27.362,2.082,2.082,178.449,218.553,222.816
0.333,27.427,2.081,2.081,178.458,218.549,222.880
0.334,27.503,2.093,2.093,178.481,218.551,222.953
0.335,27.594,2.118,2.118,178.516,218.556,223.036
0.336,27.701,2.154,2.154,178.562,218.563,223.132
0.337,27.824,2.199,2.199,178.619,218.570,223.242
0.339,27.965,2.248,2.248,178.684,218.575,223.367
0.340,28.121,2.300,2.300,178.756,218.578,223.505
0.341,28.287,2.350,2.350,178.832,218.580,223.653
0.342,28.461,2.397,2.397,178.909,218.584,223.808
0.343,28.638,2.437,2.437,178.986,218.589,223.968
0.345,28.815,2.468,2.468,179.059,218.597,224.130
0.346,28.990,2.491,2.491,179.125,218.608,224.290
0.347,29.158,2.506,2.506,179.184,218.625,224.448
0.348,29.318,2.515,2.515,179.231,218.648,224.598
0.349,29.466,2.521,2.521,179.264,218.677,224.740
0.351,29.603,2.523,2.523,179.282,218.715,224.870
0.352,29.730,2.524,2.524,179.285,218.758,224.989
0.353,29.850,2.525,2.525,179.273,218.806,225.098
0.354,29.965,2.527,2.527,179.248,218.856,225.199
0.355,30.077,2.531,2.531,179.210,218.907,225.292
0.357,30.188,2.536,2.536,179.161,218.955,225.378
0.358,30.298,2.541,2.541,179.101,219.000,225.459
0.359,30.408,2.545,2.545,179.032,219.040,225.535
0.360,30.519,2.549,2.549,178.954,219.071,225.607
0.361,30.631,2.550,2.550,178.869,219.094,225.677
0.363,30.747,2.549,2.549,178.776,219.106,225.746
0.364,30.865,2.545,2.545,178.680,219.112,225.813
0.365,30.984,2.537,2.537,178.581,219.118,225.880
0.366,31.104,2.525,2.525,178.482,219.130,225.946
0.367,31.223,2.509,2.509,178.385,219.153,226.011
0.369,31.344,2.490,2.490,178.292,219.193,226.076
0.370,31.469,2.466,2.466,178.205,219.257,226.141
0.371,31.606,2.439,2.439,178.127,219.349,226.206
0.372,31.764,2.407,2.407,178.059,219.475,226.272
0.373,31.952,2.371,2.371,178.005,219.642,226.338
0.375,32.176,2.331,2.331,177.964,219.852,226.406
0.376,32.433,2.288,2.288,177.937,220.099,226.473
0.377,32.714,2.241,2.241,177.921,220.372,226.539
0.378,33.011,2.192,2.192,177.914,220.661,226.603
0.380,33.315,2.141,2.141,177.915,220.959,226.665
0.381,33.616,2.089,2.089,177.921,221.254,226.722
0.382,33.904,2.037,2.037,177.931,221.537,226.775
0.383,34.170,1.985,1.985,177.942,221.798,226.823
0.384,34.404,1.934,1.934,177.953,222.029,226.863
0.386,34.596,1.884,1.884,177.962,222.218,226.897
0.387,34.740,1.838,1.838,177.967,222.359,226.922
0.388,34.839,1.797,1.797,177.969,222.456,226.941
0.389,34.899,1.762,1.762,177.967,222.515,226.955
0.390,34.929,1.735,1.735,177.962,222.541,226.968
0.392,34.943,1.718,1.718,177.955,222.541,226.980
0.393,34.970,1.711,1.711,177.945,222.522,226.995
0.394,35.010,1.716,1.716,177.933,222.488,227.014
0.395,35.061,1.735,1.735,177.920,222.446,227.039
0.396,35.117,1.763,1.763,177.906,222.403,227.072
0.398,35.178,1.799,1.799,177.890,222.364,227.116
0.399,35.244,1.839,1.839,177.874,222.334,227.173
0.400,35.315,1.879,1.879,177.857,222.314,227.239
0.401,35.393,1.917,1.917,177.839,222.303,227.313
0.402,35.475,1.948,1.948,177.818,222.301,227.393
0.404,35.561,1.970,1.970,177.795,222.308,227.476
0.405,35.650,1.979,1.979,177.769,222.322,227.560
0.406,35.740,1.976,1.976,177.739,222.343,227.642
0.407,35.830,1.964,1.964,177.705,222.371,227.720
0.408,35.918,1.944,1.944,177.667,222.404,227.792
0.410,36.004,1.920,1.920,177.623,222.444,227.854
0.411,36.088,1.893,1.893,177.574,222.488,227.907
0.412,36.171,1.867,1.867,177.521,222.536,227.949
0.413,36.254,1.844,1.844,177.466,222.587,227.984
0.414,36.337,1.825,1.825,177.408,222.640,228.012
0.416,36.419,1.814,1.814,177.351,222.694,228.036
0.417,36.499,1.807,1.807,177.295,222.748,228.056
0.418,36.576,1.804,1.804,177.243,222.801,228.075
0.419,36.649,1.804,1.804,177.194,222.851,228.094
0.420,36.716,1.805,1.805,177.151,222.899,228.114
0.422,36.777,1.805,1.805,177.115,222.942,228.138
0.423,36.832,1.804,1.804,177.087,222.980,228.166
0.424,36.885,1.798,1.798,177.065,223.016,228.198
0.425,36.939,1.789,1.789,177.049,223.052,228.235
0.427,36.996,1.775,1.775,177.036,223.090,228.275
0.428,37.059,1.759,1.759,177.025,223.134,228.319
0.429,37.130,1.742,1.742,177.013,223.185,228.367
0.430,37.211,1.724,1.724,177.000,223.247,228.417
0.431,37.304,1.708,1.708,176.983,223.322,228.470
0.433,37.412,1.693,1.693,176.960,223.412,228.525
0.434,37.538,1.683,1.683,176.931,223.520,228.582
0.435,37.683,1.677,1.677,176.894,223.648,228.640
0.436,37.845,1.676,1.676,176.849,223.792,228.700
0.437,38.019,1.678,1.678,176.800,223.947,228.759
0.439,38.199,1.684,1.684,176.746,224.109,228.818
0.440,38.381,1.691,1.691,176.691,224.273,228.875
0.441,38.559,1.698,1.698,176.635,224.433,228.929
0.442,38.730,1.705,1.705,176.580,224.586,228.980
0.443,38.887,1.710,1.710,176.528,224.727,229.028
0.445,39.026,1.713,1.713,176.481,224.850,229.070
0.446,39.141,1.711,1.711,176.440,224.952,229.107
0.447,39.230,1.707,1.707,176.407,225.029,229.137
0.448,39.294,1.701,1.701,176.382,225.082,229.161
0.449,39.335,1.694,1.694,176.364,225.115,229.179
0.451,39.358,1.687,1.687,176.353,225.130,229.192
0.452,39.366,1.680,1.680,176.350,225.132,229.199
0.453,39.376,1.675,1.675,176.354,225.123,229.200
0.454,39.396,1.672,1.672,176.365,225.106,229.197
0.455,39.425,1.672,1.672,176.382,225.085,229.189
0.457,39.460,1.674,1.674,176.406,225.062,229.177
0.458,39.501,1.678,1.678,176.437,225.040,229.160
0.459,39.546,1.682,1.682,176.473,225.023,229.140
0.460,39.592,1.685,1.685,176.513,225.012,229.120
0.461,39.637,1.685,1.685,176.554,225.005,229.104
0.463,39.677,1.681,1.681,176.593,225.006,229.094
0.464,39.712,1.672,1.672,176.627,225.012,229.096
0.465,39.746,1.656,1.656,176.654,225.026,229.112
0.466,39.790,1.634,1.634,176.672,225.047,229.146
0.467,39.854,1.607,1.607,176.676,225.077,229.203
0.469,39.945,1.575,1.575,176.666,225.114,229.285
0.470,40.070,1.541,1.541,176.637,225.161,229.397
0.471,40.231,1.506,1.506,176.589,225.217,229.540
0.472,40.423,1.470,1.470,176.524,225.280,229.710
0.473,40.641,1.436,1.436,176.446,225.348,229.901
0.475,40.876,1.405,1.405,176.357,225.420,230.106
0.476,41.121,1.378,1.378,176.262,225.494,230.320
0.477,41.369,1.356,1.356,176.164,225.568,230.536
0.478,41.612,1.337,1.337,176.068,225.639,230.747
0.480,41.843,1.322,1.322,175.975,225.706,230.948
0.481,42.055,1.311,1.311,175.891,225.766,231.132
0.482,42.240,1.304,1.304,175.818,225.819,231.294
0.483,42.392,1.300,1.300,175.759,225.862,231.427
0.484,42.512,1.299,1.299,175.711,225.895,231.533
0.486,42.602,1.302,1.302,175.672,225.919,231.611
0.487,42.667,1.308,1.308,175.637,225.933,231.662
0.488,42.710,1.316,1.316,175.602,225.937,231.689
0.489,42.748,1.327,1.327,175.565,225.933,231.691
0.490,42.797,1.339,1.339,175.522,225.920,231.670
0.492,42.869,1.352,1.352,175.469,225.898,231.627
