"T","Distance","Radius","FreeRadius","X","Y","Z"
0.000,0.000,1.516,1.516,186.349,208.050,211.299
0.002,0.099,1.592,1.592,186.369,208.098,211.383
0.003,0.198,1.665,1.665,186.390,208.145,211.467
0.005,0.295,1.735,1.735,186.410,208.192,211.550
0.006,0.389,1.800,1.800,186.429,208.238,211.631
0.008,0.481,1.857,1.857,186.448,208.282,211.709
0.010,0.569,1.906,1.906,186.467,208.323,211.784
0.011,0.652,1.944,1.944,186.484,208.363,211.855
0.013,0.730,1.972,1.972,186.501,208.400,211.922
0.014,0.802,1.992,1.992,186.517,208.434,211.983
0.016,0.868,2.005,2.005,186.531,208.464,212.039
0.018,0.925,2.013,2.013,186.545,208.490,212.089
0.019,0.976,2.018,2.018,186.557,208.513,212.132
0.021,1.019,2.022,2.022,186.571,208.534,212.168
0.022,1.058,2.025,2.025,186.586,208.555,212.197
0.024,1.095,2.028,2.028,186.606,208.578,212.218
0.026,1.134,2.030,2.030,186.632,208.603,212.233
0.027,1.180,2.033,2.033,186.664,208.634,212.240
0.029,1.235,2.036,2.036,186.705,208.671,212.240
0.030,1.304,2.039,2.039,186.757,208.717,212.232
0.032,1.390,2.042,2.042,186.820,208.772,212.217
0.034,1.495,2.047,2.047,186.897,208.839,212.193
0.035,1.620,2.053,2.053,186.989,208.919,212.162
0.037,1.764,2.063,2.063,187.093,209.010,212.124
0.038,1.921,2.075,2.075,187.208,209.109,212.081
0.040,2.086,2.093,2.093,187.328,209.211,212.035
0.042,2.255,2.115,2.115,187.453,209.315,211.987
0.043,2.422,2.140,2.140,187.578,209.415,211.939
0.045,2.583,2.167,2.167,187.700,209.510,211.892
0.046,2.733,2.192,2.192,187.816,209.595,211.849
0.048,2.868,2.214,2.214,187.923,209.667,211.810
0.050,2.982,2.229,2.229,188.017,209.722,211.777
0.051,3.073,2.236,2.236,188.097,209.757,211.753
0.053,3.138,2.233,2.233,188.158,209.772,211.737
0.054,3.183,2.223,2.223,188.203,209.770,211.729
0.056,3.214,2.209,2.209,188.231,209.756,211.729
0.058,3.237,2.194,2.194,188.242,209.737,211.733
0.059,3.260,2.179,2.179,188.238,209.716,211.743
0.061,3.288,2.167,2.167,188.219,209.700,211.756
0.062,3.325,2.160,2.160,188.186,209.694,211.771
0.064,3.376,2.155,2.155,188.139,209.702,211.787
0.065,3.444,2.149,2.149,188.079,209.731,211.803
0.067,3.536,2.138,2.138,188.006,209.785,211.818
0.069,3.657,2.120,2.120,187.921,209.869,211.830
0.070,3.806,2.091,2.091,187.825,209.984,211.840
0.072,3.981,2.047,2.047,187.718,210.122,211.847
0.073,4.176,1.992,1.992,187.602,210.279,211.854
0.075,4.387,1.930,1.930,187.477,210.449,211.859
0.077,4.609,1.864,1.864,187.344,210.626,211.864
0.078,4.836,1.800,1.800,187.204,210.805,211.868
0.080,5.065,1.741,1.741,187.058,210.980,211.874
0.081,5.289,1.693,1.693,186.906,211.146,211.880
0.083,5.507,1.657,1.657,186.750,211.297,211.888
0.085,5.713,1.634,1.634,186.590,211.427,211.899
0.086,5.908,1.625,1.624,186.427,211.532,211.912
0.088,6.092,1.629,1.628,186.262,211.614,211.928
0.089,6.270,1.646,1.646,186.097,211.679,211.947
0.091,6.443,1.678,1.678,185.933,211.729,211.969
0.093,6.611,1.723,1.723,185.772,211.768,211.994
0.094,6.776,1.779,1.779,185.613,211.802,212.022
0.096,6.936,1.843,1.844,185.460,211.835,212.053
0.097,7.091,1.912,1.913,185.313,211.869,212.088
0.099,7.242,1.984,1.985,185.173,211.911,212.126
0.101,7.389,2.055,2.056,185.041,211.963,212.168
0.102,7.535,2.124,2.123,184.920,212.030,212.213
0.104,7.682,2.188,2.185,184.809,212.114,212.261
0.105,7.830,2.248,2.244,184.708,212.210,212.312
0.107,7.979,2.304,2.300,184.618,212.316,212.364
0.109,8.127,2.356,2.352,184.536,212.428,212.415
0.110,8.272,2.404,2.402,184.463,212.543,212.466
0.112,8.412,2.447,2.449,184.399,212.657,212.514
0.113,8.543,2.487,2.494,184.343,212.767,212.559
0.115,8.663,2.522,2.535,184.295,212.869,212.600
0.117,8.769,2.552,2.572,184.253,212.960,212.635
0.118,8.858,2.578,2.603,184.219,213.037,212.663
0.120,8.926,2.598,2.626,184.190,213.095,212.684
0.121,8.975,2.612,2.642,184.168,213.136,212.698
0.123,9.007,2.621,2.649,184.150,213.162,212.706
0.125,9.025,2.625,2.649,184.137,213.175,212.708
0.126,9.036,2.626,2.644,184.127,213.177,212.705
0.128,9.047,2.624,2.636,184.120,213.170,212.699
0.129,9.063,2.620,2.626,184.116,213.157,212.691
0.131,9.082,2.616,2.616,184.113,213.140,212.681
0.133,9.104,2.611,2.609,184.111,213.122,212.670
0.134,9.125,2.607,2.603,184.109,213.103,212.660
0.136,9.143,2.604,2.600,184.107,213.088,212.651
0.137,9.157,2.602,2.599,184.104,213.076,212.644
0.139,9.166,2.601,2.599,184.100,213.070,212.639
0.141,9.172,2.601,2.600,184.095,213.069,212.636
0.142,9.179,2.602,2.602,184.090,213.072,212.634
0.144,9.189,2.605,2.605,184.084,213.081,212.634
0.145,9.205,2.608,2.609,184.078,213.096,212.635
0.147,9.226,2.612,2.613,184.072,213.116,212.638
0.149,9.253,2.617,2.617,184.066,213.141,212.641
0.150,9.285,2.621,2.621,184.061,213.173,212.646
0.152,9.324,2.625,2.625,184.056,213.211,212.651
0.153,9.369,2.628,2.628,184.051,213.255,212.657
0.155,9.419,2.631,2.631,184.048,213.305,212.664
0.157,9.474,2.634,2.634,184.044,213.359,212.670
0.158,9.532,2.638,2.638,184.041,213.417,212.677
0.160,9.592,2.642,2.642,184.039,213.477,212.683
0.161,9.653,2.647,2.647,184.036,213.537,212.689
0.163,9.713,2.654,2.654,184.033,213.597,212.694
0.165,9.772,2.662,2.662,184.030,213.656,212.698
0.166,9.827,2.671,2.671,184.027,213.711,212.701
0.168,9.879,2.680,2.680,184.023,213.763,212.702
0.169,9.925,2.689,2.690,184.019,213.809,212.701
0.171,9.965,2.699,2.699,184.014,213.848,212.699
0.173,10.000,2.708,2.708,184.008,213.882,212.694
0.174,10.029,2.716,2.716,184.001,213.910,212.689
0.176,10.053,2.723,2.723,183.994,213.932,212.682
0.177,10.073,2.728,2.728,183.986,213.949,212.675
0.179,10.090,2.730,2.730,183.978,213.962,212.668
0.181,10.105,2.731,2.731,183.970,213.972,212.662
0.182,10.117,2.728,2.728,183.961,213.977,212.655
0.184,10.128,2.722,2.722,183.951,213.980,212.651
0.185,10.138,2.714,2.714,183.942,213.980,212.647
0.187,10.148,2.706,2.706,183.932,213.978,212.645
0.188,10.158,2.698,2.698,183.923,213.975,212.646
0.190,10.168,2.692,2.692,183.914,213.972,212.647
0.192,10.176,2.688,2.688,183.905,213.970,212.649
0.193,10.184,2.689,2.689,183.898,213.970,212.651
0.195,10.191,2.693,2.692,183.893,213.974,212.652
0.196,10.201,2.698,2.697,183.889,213.983,212.651
0.198,10.216,2.703,2.703,183.887,213.999,212.648
0.200,10.240,2.708,2.707,183.888,214.021,212.642
0.201,10.274,2.709,2.709,183.893,214.053,212.631
0.203,10.319,2.707,2.707,183.900,214.095,212.616
0.204,10.376,2.701,2.702,183.912,214.148,212.596
0.206,10.445,2.695,2.696,183.926,214.211,212.572
0.208,10.523,2.690,2.692,183.942,214.282,212.545
0.209,10.607,2.690,2.691,183.958,214.359,212.517
0.211,10.694,2.696,2.697,183.974,214.440,212.491
0.212,10.781,2.713,2.712,183.987,214.523,212.468
0.214,10.866,2.739,2.737,183.997,214.606,212.451
0.216,10.947,2.772,2.767,184.002,214.686,212.440
0.217,11.023,2.805,2.799,184.001,214.762,212.438
0.219,11.093,2.835,2.829,183.992,214.831,212.447
0.220,11.160,2.857,2.852,183.974,214.892,212.469
0.222,11.227,2.866,2.865,183.947,214.942,212.505
0.224,11.300,2.858,2.865,183.911,214.984,212.551
0.225,11.379,2.835,2.852,183.867,215.022,212.606
0.227,11.466,2.800,2.828,183.815,215.057,212.666
0.228,11.557,2.757,2.794,183.757,215.092,212.727
0.230,11.653,2.709,2.754,183.694,215.131,212.787
0.232,11.751,2.659,2.709,183.627,215.175,212.843
0.233,11.852,2.611,2.660,183.555,215.228,212.891
0.235,11.957,2.567,2.611,183.482,215.293,212.929
0.236,12.068,2.529,2.565,183.406,215.371,212.953
0.238,12.191,2.497,2.523,183.330,215.466,212.959
0.240,12.326,2.475,2.491,183.253,215.578,212.950
0.241,12.473,2.463,2.469,183.178,215.702,212.929
0.243,12.628,2.463,2.461,183.105,215.835,212.901
0.244,12.786,2.474,2.468,183.035,215.974,212.870
0.246,12.943,2.491,2.485,182.968,216.113,212.841
0.248,13.094,2.511,2.505,182.906,216.250,212.818
0.249,13.236,2.528,2.523,182.850,216.380,212.807
0.251,13.366,2.537,2.534,182.801,216.499,212.812
0.252,13.482,2.533,2.533,182.759,216.605,212.838
0.254,13.588,2.512,2.513,182.726,216.692,212.889
0.256,13.695,2.477,2.479,182.701,216.758,212.968
0.257,13.812,2.430,2.432,182.685,216.804,213.075
0.259,13.945,2.377,2.378,182.675,216.833,213.205
0.260,14.094,2.320,2.321,182.668,216.847,213.353
0.262,14.257,2.263,2.263,182.664,216.851,213.516
0.264,14.430,2.210,2.210,182.660,216.846,213.689
0.265,14.610,2.162,2.161,182.655,216.836,213.868
0.267,14.791,2.118,2.118,182.646,216.823,214.049
0.268,14.971,2.079,2.079,182.631,216.811,214.228
0.270,15.146,2.043,2.043,182.609,216.803,214.401
0.272,15.311,2.010,2.010,182.577,216.801,214.563
0.273,15.466,1.980,1.980,182.536,216.808,214.712
0.275,15.611,1.952,1.952,182.486,216.821,214.848
0.276,15.748,1.926,1.926,182.430,216.840,214.971
0.278,15.877,1.902,1.903,182.370,216.862,215.083
0.280,15.998,1.882,1.882,182.308,216.887,215.184
0.281,16.111,1.865,1.865,182.245,216.914,215.274
0.283,16.214,1.851,1.851,182.185,216.939,215.354
0.284,16.308,1.841,1.841,182.129,216.963,215.425
0.286,16.390,1.834,1.834,182.080,216.983,215.488
0.288,16.460,1.829,1.829,182.038,216.998,215.542
0.289,16.517,1.826,1.826,182.007,217.007,215.589
0.291,16.562,1.824,1.824,181.986,217.009,215.629
0.292,16.598,1.822,1.822,181.975,217.005,215.663
0.294,16.629,1.820,1.820,181.971,216.997,215.693
0.296,16.658,1.816,1.817,181.973,216.985,215.719
0.297,16.686,1.812,1.813,181.981,216.970,215.741
0.299,16.716,1.807,1.808,181.992,216.952,215.762
0.300,16.747,1.800,1.801,182.007,216.932,215.782
0.302,16.779,1.792,1.792,182.022,216.913,215.801
0.304,16.811,1.782,1.781,182.038,216.893,215.822
0.305,16.844,1.771,1.769,182.052,216.874,215.844
0.307,16.876,1.759,1.755,182.064,216.857,215.868
0.308,16.908,1.747,1.742,182.072,216.842,215.894
0.310,16.939,1.737,1.732,182.078,216.828,215.922
0.312,16.970,1.729,1.726,182.079,216.816,215.951
0.313,17.002,1.724,1.724,182.076,216.806,215.981
0.315,17.033,1.723,1.729,182.067,216.797,216.010
0.316,17.065,1.725,1.738,182.054,216.790,216.038
0.318,17.099,1.727,1.748,182.034,216.785,216.065
0.319,17.135,1.730,1.757,182.009,216.781,216.090
0.321,17.175,1.731,1.762,181.976,216.778,216.113
0.323,17.220,1.728,1.760,181.936,216.777,216.133
0.324,17.270,1.721,1.750,181.889,216.777,216.150
0.326,17.325,1.710,1.731,181.835,216.779,216.165
0.327,17.386,1.694,1.707,181.777,216.782,216.179
0.329,17.450,1.675,1.680,181.715,216.786,216.194
0.331,17.517,1.652,1.655,181.649,216.791,216.210
0.332,17.588,1.627,1.633,181.582,216.798,216.229
0.334,17.660,1.600,1.618,181.514,216.805,216.252
0.335,17.734,1.571,1.610,181.446,216.813,216.279
0.337,17.809,1.541,1.608,181.379,216.823,216.312
0.339,17.885,1.509,1.608,181.314,216.833,216.352
0.340,17.964,1.477,1.609,181.253,216.844,216.400
0.342,18.046,1.444,1.607,181.193,216.856,216.455
0.343,18.132,1.411,1.600,181.135,216.870,216.517
0.345,18.223,1.378,1.586,181.075,216.887,216.584
0.347,18.320,1.344,1.565,181.013,216.907,216.655
0.348,18.422,1.311,1.538,180.947,216.931,216.729
0.350,18.531,1.277,1.505,180.876,216.960,216.806
0.351,18.647,1.244,1.467,180.796,216.993,216.884
0.353,18.771,1.210,1.426,180.709,217.032,216.961
0.355,18.904,1.176,1.381,180.610,217.078,217.038
0.356,19.047,1.144,1.334,180.500,217.131,217.113
0.358,19.201,1.114,1.288,180.377,217.191,217.185
0.359,19.365,1.089,1.245,180.246,217.257,217.256
0.361,19.534,1.070,1.207,180.110,217.330,217.327
0.363,19.707,1.059,1.176,179.973,217.407,217.400
0.364,19.881,1.058,1.154,179.840,217.489,217.475
0.366,20.053,1.066,1.143,179.714,217.574,217.555
0.367,20.220,1.080,1.138,179.600,217.663,217.640
0.369,20.383,1.097,1.138,179.501,217.753,217.732
0.371,20.540,1.114,1.140,179.421,217.844,217.833
0.372,20.695,1.127,1.140,179.365,217.936,217.943
0.374,20.850,1.133,1.137,179.336,218.028,218.065
0.375,21.010,1.130,1.128,179.334,218.119,218.196
0.377,21.178,1.121,1.116,179.354,218.209,218.337
0.379,21.354,1.110,1.105,179.394,218.296,218.485
0.380,21.538,1.101,1.097,179.449,218.382,218.638
0.382,21.726,1.099,1.097,179.515,218.464,218.793
0.383,21.917,1.108,1.107,179.589,218.543,218.951
0.385,22.107,1.131,1.132,179.666,218.619,219.107
0.387,22.294,1.167,1.169,179.743,218.690,219.262
0.388,22.473,1.214,1.216,179.815,218.756,219.412
0.390,22.642,1.269,1.270,179.880,218.816,219.556
0.391,22.798,1.327,1.328,179.933,218.871,219.692
0.393,22.942,1.386,1.387,179.973,218.919,219.822
0.395,23.075,1.443,1.443,179.999,218.960,219.946
0.396,23.200,1.496,1.496,180.012,218.992,220.066
0.398,23.319,1.544,1.543,180.011,219.014,220.183
0.399,23.436,1.586,1.586,179.994,219.025,220.298
0.401,23.555,1.623,1.623,179.961,219.026,220.413
0.403,23.681,1.654,1.654,179.913,219.014,220.528
0.404,23.818,1.679,1.679,179.847,218.989,220.646
0.406,23.970,1.698,1.698,179.764,218.949,220.767
0.407,24.140,1.714,1.714,179.662,218.894,220.892
0.409,24.329,1.728,1.728,179.544,218.825,221.022
0.411,24.533,1.744,1.744,179.413,218.743,221.155
0.412,24.748,1.764,1.764,179.273,218.650,221.289
0.414,24.970,1.791,1.791,179.127,218.549,221.422
0.415,25.194,1.827,1.827,178.979,218.442,221.553
0.417,25.416,1.871,1.871,178.834,218.332,221.678
0.419,25.631,1.918,1.918,178.695,218.219,221.798
0.420,25.835,1.964,1.964,178.566,218.107,221.910
0.422,26.023,2.007,2.007,178.451,217.998,222.011
0.423,26.191,2.041,2.041,178.354,217.895,222.100
0.425,26.335,2.063,2.064,178.278,217.798,222.176
0.427,26.457,2.073,2.073,178.223,217.709,222.239
0.428,26.557,2.074,2.074,178.186,217.630,222.288
0.430,26.639,2.067,2.067,178.164,217.561,222.326
0.431,26.704,2.058,2.058,178.155,217.503,222.354
0.433,26.753,2.047,2.047,178.155,217.457,222.371
0.435,26.789,2.040,2.040,178.163,217.424,222.380
0.436,26.812,2.037,2.037,178.174,217.403,222.381
0.438,26.828,2.038,2.038,178.188,217.398,222.375
0.439,26.848,2.041,2.041,178.200,217.407,222.363
0.441,26.879,2.044,2.044,178.208,217.432,222.345
0.442,26.925,2.047,2.047,178.211,217.472,222.324
0.444,26.979,2.047,2.047,178.209,217.522,222.302
0.446,27.036,2.043,2.043,178.204,217.575,222.281
0.447,27.089,2.036,2.036,178.197,217.624,222.264
0.449,27.131,2.026,2.026,178.190,217.664,222.253
0.450,27.156,2.015,2.015,178.184,217.688,222.252
0.452,27.167,2.004,2.004,178.181,217.690,222.263
0.454,27.204,1.994,1.994,178.183,217.663,222.289
0.455,27.280,1.987,1.987,178.190,217.601,222.332
0.457,27.401,1.983,1.983,178.204,217.498,222.395
0.458,27.576,1.985,1.985,178.227,217.348,222.480
0.460,27.801,1.994,1.994,178.258,217.152,222.587
0.462,28.067,2.011,2.011,178.296,216.920,222.711
0.463,28.363,2.038,2.038,178.340,216.661,222.848
0.465,28.680,2.077,2.077,178.388,216.384,222.994
0.466,29.006,2.127,2.127,178.437,216.099,223.144
0.468,29.331,2.185,2.185,178.488,215.814,223.293
0.470,29.646,2.246,2.246,178.538,215.540,223.439
0.471,29.939,2.306,2.306,178.586,215.285,223.575
0.473,30.200,2.360,2.360,178.629,215.059,223.698
0.474,30.419,2.405,2.405,178.668,214.871,223.804
0.476,30.587,2.435,2.435,178.700,214.729,223.889
0.478,30.708,2.453,2.453,178.725,214.630,223.954
0.479,30.789,2.460,2.460,178.745,214.569,224.001
0.481,30.835,2.461,2.461,178.759,214.539,224.034
0.482,30.857,2.458,2.458,178.769,214.535,224.054
0.484,30.877,2.455,2.455,178.774,214.551,224.064
0.486,30.908,2.454,2.454,178.776,214.582,224.066
0.487,30.948,2.457,2.457,178.776,214.621,224.063
0.489,30.991,2.462,2.462,178.773,214.664,224.057
0.490,31.032,2.470,2.470,178.769,214.705,224.052
0.492,31.065,2.479,2.479,178.764,214.737,224.048
0.494,31.087,2.489,2.489,178.758,214.758,224.048
0.495,31.099,2.499,2.499,178.752,214.767,224.053
0.497,31.109,2.508,2.508,178.747,214.767,224.061
0.498,31.124,2.516,2.516,178.742,214.759,224.073
0.500,31.148,2.523,2.522,178.738,214.742,224.089
0.502,31.178,2.528,2.527,178.736,214.719,224.108
0.503,31.216,2.530,2.529,178.735,214.689,224.132
0.505,31.259,2.529,2.528,178.736,214.655,224.159
0.506,31.308,2.524,2.525,178.739,214.618,224.190
0.508,31.362,2.519,2.520,178.745,214.577,224.225
0.510,31.419,2.514,2.516,178.754,214.535,224.263
0.511,31.482,2.512,2.514,178.764,214.492,224.306
0.513,31.549,2.515,2.517,178.776,214.447,224.355
0.514,31.623,2.526,2.527,178.787,214.400,224.411
0.516,31.704,2.547,2.545,178.796,214.352,224.476
0.518,31.793,2.578,2.573,178.803,214.303,224.550
0.519,31.893,2.617,2.609,178.804,214.252,224.636
0.521,32.004,2.663,2.653,178.800,214.200,224.733
0.522,32.128,2.713,2.704,178.789,214.145,224.845
0.524,32.268,2.767,2.761,178.769,214.090,224.972
0.526,32.425,2.822,2.823,178.739,214.033,225.115
0.527,32.599,2.876,2.890,178.699,213.973,225.274
0.529,32.789,2.932,2.960,178.650,213.911,225.445
0.530,32.989,2.987,3.032,178.593,213.843,225.625
0.532,33.195,3.045,3.103,178.530,213.769,225.808
0.534,33.405,3.103,3.171,178.463,213.687,225.988
0.535,33.614,3.164,3.237,178.394,213.595,226.163
0.537,33.820,3.227,3.297,178.323,213.492,226.327
0.538,34.021,3.292,3.353,178.254,213.376,226.475
0.540,34.216,3.357,3.405,178.186,213.245,226.603
0.542,34.406,3.422,3.454,178.123,213.099,226.706
0.543,34.595,3.485,3.502,178.066,212.935,226.780
0.545,34.787,3.545,3.550,178.015,212.754,226.824
0.546,34.987,3.602,3.598,177.973,212.560,226.843
0.548,35.193,3.653,3.645,177.940,212.356,226.843
0.550,35.405,3.699,3.690,177.918,212.147,226.829
0.551,35.618,3.737,3.730,177.907,211.934,226.805
0.553,35.831,3.766,3.762,177.908,211.723,226.777
0.554,36.040,3.785,3.784,177.924,211.517,226.750
0.556,36.242,3.793,3.793,177.954,211.319,226.729
0.558,36.434,3.790,3.790,178.001,211.132,226.719
0.559,36.616,3.779,3.779,178.064,210.961,226.725
0.561,36.791,3.764,3.765,178.145,210.809,226.752
0.562,36.964,3.747,3.753,178.242,210.673,226.799
0.564,37.139,3.732,3.747,178.349,210.551,226.863
0.565,37.318,3.723,3.754,178.465,210.441,226.944
0.567,37.502,3.722,3.777,178.586,210.340,227.038
0.569,37.689,3.728,3.812,178.706,210.244,227.144
0.570,37.878,3.739,3.854,178.824,210.152,227.260
0.572,38.068,3.754,3.897,178.936,210.060,227.384
0.573,38.257,3.771,3.934,179.037,209.965,227.512
0.575,38.445,3.788,3.960,179.125,209.865,227.645
0.577,38.630,3.803,3.970,179.195,209.758,227.778
0.578,38.815,3.816,3.963,179.246,209.640,227.911
0.580,38.999,3.828,3.947,179.279,209.516,228.043
0.581,39.183,3.841,3.925,179.298,209.385,228.172
0.583,39.366,3.856,3.905,179.305,209.252,228.296
0.585,39.547,3.873,3.892,179.302,209.117,228.416
0.586,39.723,3.896,3.891,179.292,208.983,228.530
0.588,39.893,3.923,3.905,179.276,208.851,228.637
0.589,40.055,3.955,3.932,179.258,208.724,228.735
0.591,40.205,3.989,3.969,179.239,208.605,228.824
0.593,40.342,4.025,4.010,179.223,208.494,228.902
0.594,40.462,4.062,4.054,179.211,208.394,228.969
0.596,40.567,4.098,4.097,179.204,208.305,229.025
0.597,40.658,4.132,4.136,179.203,208.227,229.071
0.599,40.735,4.162,4.167,179.208,208.159,229.107
0.601,40.802,4.184,4.190,179.218,208.100,229.136
0.602,40.859,4.198,4.202,179.233,208.049,229.159
0.604,40.910,4.199,4.201,179.254,208.006,229.176
0.605,40.957,4.185,4.186,179.280,207.971,229.190
0.607,41.001,4.154,4.153,179.312,207.941,229.200
0.609,41.047,4.109,4.107,179.350,207.917,229.209
0.610,41.095,4.055,4.054,179.393,207.898,229.218
0.612,41.145,4.001,3.999,179.441,207.883,229.226
0.613,41.197,3.951,3.951,179.489,207.871,229.236
0.615,41.244,3.914,3.914,179.533,207.858,229.247
0.617,41.284,3.896,3.896,179.569,207.843,229.259
0.618,41.315,3.899,3.899,179.590,207.825,229.273
0.620,41.344,3.916,3.916,179.592,207.801,229.288
0.621,41.386,3.941,3.942,179.571,207.768,229.306
0.623,41.454,3.968,3.968,179.521,207.726,229.325
0.625,41.555,3.989,3.989,179.438,207.672,229.346
0.626,41.696,3.998,3.998,179.317,207.605,229.370
0.628,41.882,3.989,3.989,179.153,207.521,229.396
0.629,42.113,3.967,3.966,178.947,207.422,229.426
0.631,42.380,3.935,3.935,178.706,207.309,229.459
0.633,42.677,3.899,3.899,178.439,207.186,229.497
0.634,42.994,3.865,3.865,178.153,207.055,229.539
0.636,43.324,3.838,3.838,177.857,206.919,229.588
0.637,43.658,3.823,3.823,177.558,206.780,229.644
0.639,43.989,3.820,3.820,177.264,206.642,229.707
0.641,44.309,3.826,3.826,176.983,206.506,229.778
0.642,44.611,3.838,3.838,176.723,206.376,229.858
0.644,44.887,3.852,3.852,176.493,206.254,229.948
0.645,45.132,3.865,3.865,176.298,206.143,230.048
0.647,45.351,3.874,3.874,176.138,206.043,230.158
0.649,45.548,3.878,3.878,176.007,205.954,230.277
0.650,45.730,3.876,3.876,175.902,205.876,230.403
0.652,45.902,3.870,3.870,175.817,205.809,230.537
