"T","Distance","Radius","FreeRadius","X","Y","Z"
0.000,0.000,0.832,0.832,186.197,223.142,217.286
0.002,0.171,0.904,0.904,186.342,223.052,217.285
0.003,0.341,0.975,0.975,186.488,222.963,217.285
0.005,0.510,1.044,1.044,186.632,222.877,217.285
0.006,0.676,1.108,1.108,186.775,222.793,217.284
0.008,0.838,1.167,1.167,186.916,222.713,217.283
0.009,0.995,1.219,1.219,187.055,222.639,217.281
0.011,1.148,1.264,1.264,187.191,222.570,217.279
0.013,1.294,1.301,1.301,187.324,222.508,217.276
0.014,1.434,1.333,1.333,187.453,222.454,217.273
0.016,1.567,1.361,1.361,187.578,222.410,217.268
0.017,1.692,1.387,1.387,187.698,222.375,217.263
0.019,1.810,1.412,1.412,187.814,222.350,217.257
0.021,1.922,1.440,1.440,187.924,222.336,217.249
0.022,2.029,1.469,1.469,188.030,222.329,217.239
0.024,2.131,1.501,1.501,188.132,222.329,217.228
0.025,2.230,1.533,1.533,188.230,222.335,217.214
0.027,2.327,1.565,1.565,188.324,222.346,217.197
0.028,2.420,1.597,1.597,188.415,222.359,217.177
0.030,2.512,1.626,1.626,188.502,222.374,217.154
0.032,2.602,1.652,1.652,188.587,222.390,217.127
0.033,2.691,1.675,1.675,188.669,222.405,217.095
0.035,2.780,1.696,1.696,188.748,222.418,217.059
0.036,2.867,1.715,1.715,188.826,222.429,217.019
0.038,2.955,1.731,1.731,188.901,222.437,216.975
0.039,3.042,1.747,1.747,188.974,222.443,216.928
0.041,3.128,1.760,1.760,189.044,222.449,216.880
0.043,3.213,1.773,1.773,189.113,222.454,216.830
0.044,3.296,1.787,1.787,189.179,222.460,216.780
0.046,3.377,1.801,1.801,189.244,222.467,216.732
0.047,3.455,1.818,1.818,189.306,222.476,216.685
0.049,3.530,1.838,1.838,189.365,222.487,216.641
0.051,3.601,1.862,1.862,189.423,222.501,216.601
0.052,3.669,1.891,1.891,189.478,222.519,216.566
0.054,3.734,1.922,1.922,189.531,222.542,216.535
0.055,3.796,1.955,1.955,189.581,222.567,216.510
0.057,3.855,1.985,1.985,189.628,222.596,216.488
0.058,3.911,2.012,2.012,189.672,222.627,216.471
0.060,3.964,2.034,2.034,189.711,222.659,216.456
0.062,4.014,2.047,2.047,189.746,222.692,216.444
0.063,4.060,2.053,2.053,189.777,222.725,216.435
0.065,4.101,2.052,2.052,189.802,222.757,216.426
0.066,4.139,2.046,2.046,189.821,222.788,216.419
0.068,4.171,2.036,2.036,189.834,222.817,216.413
0.070,4.199,2.024,2.024,189.841,222.844,216.406
0.071,4.224,2.010,2.010,189.843,222.867,216.399
0.073,4.245,1.996,1.996,189.844,222.887,216.393
0.074,4.264,1.983,1.983,189.849,222.905,216.386
0.076,4.284,1.973,1.973,189.862,222.919,216.379
0.077,4.312,1.964,1.964,189.887,222.930,216.373
0.079,4.355,1.960,1.960,189.929,222.937,216.368
0.081,4.419,1.960,1.960,189.992,222.942,216.363
0.082,4.508,1.965,1.965,190.081,222.944,216.360
0.084,4.627,1.979,1.979,190.200,222.942,216.357
0.085,4.780,2.004,2.004,190.353,222.938,216.356
0.087,4.973,2.043,2.043,190.545,222.930,216.356
0.088,5.202,2.101,2.101,190.775,222.920,216.358
0.090,5.462,2.180,2.180,191.034,222.907,216.361
0.092,5.744,2.283,2.283,191.315,222.892,216.366
0.093,6.038,2.406,2.406,191.609,222.875,216.372
0.095,6.338,2.541,2.541,191.909,222.858,216.379
0.096,6.636,2.675,2.675,192.205,222.839,216.387
0.098,6.922,2.798,2.798,192.491,222.820,216.397
0.100,7.189,2.899,2.899,192.757,222.802,216.408
0.101,7.428,2.968,2.968,192.995,222.783,216.419
0.103,7.632,2.997,2.997,193.198,222.766,216.431
0.104,7.793,2.995,2.995,193.358,222.750,216.445
0.106,7.910,2.970,2.970,193.473,222.736,216.458
0.107,7.988,2.934,2.934,193.548,222.721,216.473
0.109,8.035,2.894,2.894,193.590,222.706,216.487
0.111,8.061,2.863,2.863,193.603,222.689,216.502
0.112,8.087,2.848,2.848,193.594,222.669,216.516
0.114,8.125,2.850,2.850,193.567,222.646,216.530
0.115,8.174,2.865,2.865,193.529,222.618,216.544
0.117,8.231,2.888,2.888,193.484,222.585,216.556
0.118,8.292,2.914,2.914,193.439,222.545,216.568
0.120,8.355,2.938,2.938,193.399,222.498,216.578
0.122,8.419,2.956,2.956,193.369,222.442,216.587
0.123,8.485,2.964,2.964,193.352,222.379,216.595
0.125,8.556,2.964,2.964,193.347,222.309,216.603
0.126,8.633,2.959,2.959,193.353,222.233,216.612
0.128,8.715,2.948,2.948,193.371,222.153,216.622
0.130,8.805,2.935,2.935,193.401,222.069,216.635
0.131,8.901,2.920,2.920,193.442,221.984,216.651
0.133,9.003,2.906,2.906,193.494,221.898,216.671
0.134,9.112,2.892,2.892,193.556,221.813,216.696
0.136,9.227,2.876,2.876,193.629,221.729,216.728
0.137,9.349,2.858,2.858,193.712,221.647,216.765
0.139,9.478,2.836,2.836,193.804,221.570,216.811
0.141,9.612,2.811,2.811,193.905,221.498,216.863
0.142,9.750,2.779,2.779,194.010,221.429,216.920
0.144,9.890,2.743,2.743,194.119,221.366,216.981
0.145,10.028,2.704,2.704,194.227,221.307,217.043
0.147,10.162,2.664,2.664,194.333,221.253,217.106
0.148,10.290,2.624,2.624,194.433,221.205,217.168
0.150,10.408,2.588,2.588,194.526,221.161,217.226
0.152,10.514,2.556,2.556,194.608,221.122,217.281
0.153,10.604,2.531,2.531,194.677,221.089,217.329
0.155,10.676,2.511,2.511,194.730,221.061,217.369
0.156,10.729,2.497,2.497,194.765,221.039,217.400
0.158,10.763,2.488,2.488,194.784,221.021,217.422
0.160,10.784,2.483,2.483,194.788,221.007,217.438
0.161,10.800,2.481,2.481,194.782,220.996,217.447
0.163,10.818,2.482,2.482,194.766,220.986,217.452
0.164,10.841,2.485,2.485,194.745,220.978,217.453
0.166,10.867,2.489,2.489,194.722,220.969,217.453
0.167,10.892,2.494,2.494,194.698,220.959,217.452
0.169,10.917,2.499,2.499,194.676,220.947,217.453
0.171,10.939,2.502,2.502,194.660,220.932,217.455
0.172,10.960,2.504,2.504,194.652,220.913,217.462
0.174,10.987,2.503,2.503,194.655,220.890,217.473
0.175,11.022,2.500,2.500,194.669,220.861,217.488
0.177,11.066,2.493,2.493,194.692,220.828,217.507
0.179,11.120,2.483,2.483,194.725,220.792,217.528
0.180,11.181,2.470,2.470,194.766,220.752,217.549
0.182,11.248,2.452,2.452,194.815,220.710,217.571
0.183,11.322,2.431,2.431,194.870,220.666,217.591
0.185,11.401,2.405,2.405,194.932,220.620,217.609
0.186,11.484,2.375,2.375,194.998,220.572,217.622
0.188,11.571,2.340,2.340,195.070,220.525,217.632
0.190,11.660,2.302,2.302,195.145,220.477,217.635
0.191,11.751,2.259,2.259,195.223,220.429,217.632
0.193,11.844,2.211,2.211,195.302,220.381,217.626
0.194,11.937,2.160,2.160,195.380,220.331,217.621
0.196,12.029,2.108,2.108,195.456,220.279,217.622
0.197,12.120,2.056,2.056,195.527,220.223,217.632
0.199,12.211,2.006,2.006,195.591,220.163,217.655
0.201,12.307,1.961,1.961,195.648,220.097,217.696
0.202,12.413,1.921,1.921,195.693,220.025,217.760
0.204,12.538,1.889,1.889,195.727,219.945,217.849
0.205,12.688,1.865,1.865,195.746,219.857,217.969
0.207,12.870,1.849,1.849,195.750,219.759,218.123
0.209,13.090,1.841,1.841,195.736,219.652,218.314
0.210,13.341,1.842,1.842,195.707,219.536,218.535
0.212,13.616,1.850,1.850,195.664,219.415,218.778
0.213,13.906,1.868,1.868,195.611,219.291,219.035
0.215,14.205,1.891,1.891,195.549,219.166,219.299
0.216,14.502,1.919,1.919,195.480,219.042,219.560
0.218,14.790,1.947,1.947,195.408,218.922,219.812
0.220,15.060,1.972,1.972,195.333,218.808,220.046
0.221,15.304,1.993,1.993,195.259,218.703,220.253
0.223,15.514,2.006,2.006,195.188,218.609,220.426
0.224,15.682,2.010,2.010,195.122,218.528,220.557
0.226,15.805,2.007,2.007,195.062,218.461,220.642
0.227,15.893,1.999,1.999,195.012,218.405,220.688
0.229,15.960,1.990,1.990,194.970,218.355,220.702
0.231,16.017,1.982,1.982,194.940,218.308,220.695
0.232,16.073,1.976,1.976,194.922,218.258,220.675
0.234,16.135,1.975,1.975,194.916,218.202,220.650
0.235,16.205,1.980,1.980,194.926,218.135,220.630
0.237,16.291,1.991,1.991,194.951,218.053,220.623
0.239,16.401,2.007,2.007,194.992,217.952,220.638
0.240,16.546,2.029,2.029,195.052,217.828,220.683
0.242,16.737,2.056,2.056,195.131,217.676,220.768
0.243,16.980,2.089,2.089,195.229,217.496,220.897
0.245,17.266,2.129,2.129,195.343,217.291,221.062
0.246,17.587,2.178,2.178,195.468,217.068,221.256
0.248,17.933,2.238,2.238,195.600,216.833,221.472
0.250,18.292,2.312,2.312,195.735,216.592,221.702
0.251,18.655,2.402,2.402,195.870,216.350,221.937
0.253,19.012,2.509,2.509,196.000,216.114,222.171
0.254,19.352,2.634,2.634,196.121,215.889,222.394
0.256,19.664,2.770,2.770,196.230,215.680,222.600
0.258,19.939,2.909,2.909,196.321,215.495,222.781
0.259,20.166,3.043,3.043,196.392,215.339,222.929
0.261,20.340,3.164,3.164,196.440,215.214,223.041
0.262,20.468,3.264,3.264,196.469,215.117,223.120
0.264,20.558,3.336,3.336,196.482,215.045,223.172
0.265,20.617,3.383,3.383,196.481,214.995,223.203
0.267,20.653,3.408,3.408,196.470,214.964,223.217
0.269,20.677,3.418,3.418,196.453,214.947,223.220
0.270,20.699,3.418,3.418,196.432,214.942,223.216
0.272,20.721,3.413,3.413,196.411,214.944,223.210
0.273,20.740,3.409,3.409,196.393,214.952,223.208
0.275,20.757,3.409,3.409,196.381,214.960,223.216
0.276,20.779,3.414,3.414,196.379,214.966,223.237
0.278,20.816,3.424,3.424,196.386,214.968,223.273
0.280,20.867,3.440,3.440,196.402,214.966,223.322
0.281,20.929,3.462,3.462,196.424,214.961,223.379
0.283,20.998,3.490,3.490,196.450,214.951,223.442
0.284,21.069,3.525,3.525,196.478,214.938,223.507
0.286,21.140,3.563,3.563,196.505,214.921,223.570
0.288,21.206,3.601,3.601,196.530,214.901,223.627
0.289,21.263,3.635,3.635,196.549,214.879,223.677
0.291,21.310,3.661,3.661,196.562,214.853,223.713
0.292,21.345,3.674,3.674,196.565,214.825,223.735
0.294,21.377,3.673,3.673,196.557,214.794,223.737
0.295,21.417,3.657,3.657,196.538,214.762,223.721
0.297,21.467,3.632,3.632,196.513,214.731,223.693
0.299,21.520,3.601,3.601,196.484,214.703,223.658
0.300,21.570,3.570,3.570,196.457,214.680,223.622
0.302,21.611,3.542,3.542,196.435,214.665,223.591
0.303,21.636,3.524,3.524,196.421,214.660,223.571
0.305,21.643,3.517,3.517,196.421,214.666,223.567
0.306,21.676,3.525,3.525,196.438,214.687,223.586
0.308,21.746,3.546,3.546,196.475,214.723,223.633
0.310,21.862,3.584,3.584,196.537,214.779,223.714
0.311,22.031,3.637,3.637,196.628,214.855,223.834
0.313,22.250,3.708,3.708,196.746,214.950,223.992
0.314,22.509,3.796,3.796,196.884,215.061,224.181
0.316,22.797,3.897,3.897,197.037,215.183,224.392
0.318,23.104,4.005,4.005,197.199,215.312,224.618
0.319,23.418,4.114,4.114,197.364,215.444,224.851
0.321,23.729,4.216,4.216,197.525,215.574,225.083
0.322,24.026,4.305,4.305,197.675,215.700,225.307
0.324,24.299,4.376,4.376,197.810,215.816,225.514
0.325,24.537,4.425,4.425,197.922,215.918,225.696
0.327,24.729,4.457,4.457,198.006,216.002,225.847
0.329,24.866,4.477,4.477,198.056,216.065,225.959
0.330,24.952,4.488,4.488,198.074,216.107,226.032
0.332,25.000,4.494,4.494,198.068,216.131,226.072
0.333,25.027,4.501,4.501,198.047,216.140,226.087
0.335,25.057,4.511,4.511,198.018,216.138,226.081
0.336,25.093,4.524,4.524,197.989,216.127,226.061
0.338,25.131,4.540,4.540,197.968,216.112,226.034
0.340,25.164,4.558,4.558,197.964,216.095,226.005
0.341,25.199,4.577,4.577,197.984,216.079,225.981
0.343,25.254,4.597,4.597,198.036,216.069,225.968
0.344,25.346,4.615,4.615,198.128,216.067,225.972
0.346,25.489,4.635,4.635,198.268,216.076,225.999
0.348,25.680,4.659,4.659,198.451,216.096,226.048
0.349,25.910,4.689,4.689,198.670,216.125,226.115
0.351,26.170,4.729,4.729,198.914,216.159,226.198
0.352,26.450,4.782,4.782,199.175,216.198,226.291
0.354,26.740,4.849,4.849,199.444,216.239,226.391
0.355,27.030,4.932,4.932,199.712,216.279,226.494
0.357,27.310,5.024,5.024,199.970,216.317,226.597
0.359,27.571,5.117,5.117,200.209,216.349,226.696
0.360,27.802,5.205,5.205,200.420,216.375,226.787
0.362,27.993,5.280,5.280,200.593,216.391,226.866
0.363,28.137,5.336,5.336,200.722,216.396,226.929
0.365,28.236,5.365,5.365,200.809,216.391,226.977
0.367,28.297,5.370,5.370,200.859,216.380,227.011
0.368,28.330,5.358,5.358,200.879,216.366,227.032
0.370,28.347,5.334,5.334,200.877,216.351,227.040
0.371,28.370,5.304,5.304,200.858,216.340,227.038
0.373,28.402,5.274,5.274,200.828,216.334,227.025
0.374,28.441,5.249,5.249,200.795,216.337,227.004
0.376,28.486,5.232,5.232,200.765,216.353,226.976
0.378,28.538,5.221,5.221,200.743,216.385,226.941
0.379,28.602,5.214,5.214,200.738,216.434,226.900
0.381,28.687,5.208,5.208,200.753,216.505,226.855
0.382,28.794,5.202,5.202,200.789,216.594,226.807
0.384,28.920,5.193,5.193,200.840,216.697,226.756
0.385,29.061,5.179,5.179,200.905,216.810,226.703
0.387,29.211,5.161,5.161,200.979,216.928,226.649
0.389,29.365,5.141,5.141,201.059,217.049,226.594
0.390,29.519,5.118,5.118,201.142,217.167,226.540
0.392,29.667,5.095,5.095,201.223,217.278,226.487
0.393,29.803,5.073,5.073,201.300,217.378,226.436
0.395,29.924,5.052,5.052,201.370,217.464,226.388
0.397,30.023,5.033,5.033,201.428,217.530,226.342
0.398,30.098,5.017,5.017,201.473,217.575,226.301
0.400,30.155,5.004,5.004,201.506,217.600,226.264
0.401,30.198,4.994,4.994,201.531,217.611,226.230
0.403,30.235,4.988,4.988,201.552,217.612,226.199
0.404,30.270,4.985,4.985,201.572,217.606,226.171
0.406,30.305,4.987,4.987,201.594,217.599,226.145
0.408,30.341,4.988,4.989,201.621,217.595,226.121
0.409,30.384,4.987,4.988,201.658,217.598,226.099
0.411,30.439,4.981,4.981,201.707,217.612,226.078
0.412,30.514,4.965,4.965,201.772,217.643,226.058
0.414,30.614,4.938,4.938,201.856,217.693,226.038
0.415,30.744,4.895,4.895,201.962,217.766,226.018
0.417,30.901,4.841,4.841,202.086,217.860,225.998
0.419,31.082,4.779,4.778,202.227,217.971,225.977
0.420,31.280,4.712,4.711,202.381,218.094,225.955
0.422,31.492,4.644,4.644,202.544,218.227,225.932
0.423,31.714,4.581,4.580,202.715,218.367,225.906
0.425,31.940,4.524,4.525,202.888,218.508,225.878
0.427,32.165,4.477,4.478,203.063,218.648,225.847
0.428,32.386,4.438,4.439,203.234,218.783,225.813
0.430,32.599,4.405,4.407,203.400,218.910,225.775
0.431,32.797,4.377,4.379,203.557,219.024,225.733
0.433,32.980,4.353,4.354,203.703,219.125,225.688
0.434,33.147,4.331,4.331,203.837,219.214,225.642
0.436,33.299,4.310,4.308,203.959,219.293,225.601
0.438,33.436,4.290,4.285,204.069,219.368,225.567
0.439,33.559,4.271,4.264,204.167,219.439,225.545
0.441,33.670,4.252,4.244,204.252,219.511,225.538
0.442,33.775,4.233,4.227,204.325,219.585,225.550
0.444,33.882,4.214,4.212,204.384,219.666,225.586
0.445,34.001,4.194,4.200,204.430,219.757,225.648
0.447,34.144,4.176,4.191,204.464,219.859,225.742
0.449,34.319,4.160,4.187,204.483,219.977,225.870
0.450,34.530,4.150,4.187,204.490,220.111,226.033
0.452,34.773,4.146,4.194,204.485,220.258,226.227
0.453,35.041,4.153,4.206,204.472,220.415,226.443
0.455,35.327,4.170,4.225,204.452,220.578,226.678
0.457,35.625,4.200,4.250,204.428,220.745,226.923
0.458,35.926,4.237,4.280,204.401,220.911,227.173
0.460,36.224,4.280,4.312,204.374,221.073,227.421
0.461,36.511,4.322,4.343,204.348,221.229,227.661
0.463,36.781,4.362,4.372,204.327,221.373,227.888
0.464,37.025,4.394,4.395,204.312,221.504,228.093
0.466,37.237,4.417,4.412,204.305,221.618,228.273
0.468,37.414,4.431,4.423,204.307,221.713,228.422
0.469,37.559,4.438,4.430,204.317,221.790,228.544
0.471,37.676,4.442,4.436,204.333,221.852,228.642
0.472,37.769,4.446,4.441,204.354,221.901,228.718
0.474,37.841,4.451,4.449,204.379,221.937,228.775
0.476,37.896,4.460,4.462,204.406,221.963,228.816
0.477,37.939,4.475,4.478,204.433,221.981,228.844
0.479,37.972,4.493,4.498,204.459,221.992,228.861
0.480,37.999,4.512,4.518,204.483,221.998,228.870
0.482,38.020,4.530,4.537,204.503,222.002,228.875
0.483,38.035,4.547,4.554,204.518,222.003,228.877
0.485,38.045,4.558,4.565,204.528,222.005,228.878
0.487,38.051,4.565,4.571,204.533,222.008,228.880
0.488,38.056,4.566,4.570,204.534,222.013,228.882
0.490,38.066,4.562,4.565,204.532,222.022,228.885
0.491,38.080,4.553,4.556,204.529,222.034,228.890
0.493,38.099,4.542,4.543,204.525,222.053,228.896
0.494,38.125,4.527,4.527,204.521,222.077,228.903
0.496,38.159,4.510,4.510,204.519,222.110,228.914
0.498,38.202,4.491,4.491,204.518,222.150,228.927
0.499,38.255,4.472,4.471,204.521,222.201,228.943
0.501,38.320,4.452,4.451,204.528,222.262,228.964
0.502,38.395,4.433,4.433,204.540,222.333,228.987
0.504,38.480,4.415,4.415,204.554,222.411,229.013
0.506,38.570,4.400,4.400,204.572,222.495,229.041
0.507,38.663,4.388,4.387,204.590,222.582,229.070
0.509,38.758,4.377,4.376,204.610,222.670,229.100
0.510,38.850,4.367,4.366,204.629,222.755,229.129
0.512,38.938,4.357,4.356,204.647,222.836,229.157
0.513,39.018,4.347,4.346,204.663,222.911,229.182
0.515,39.089,4.335,4.335,204.677,222.977,229.205
0.517,39.148,4.321,4.321,204.686,223.032,229.224
0.518,39.192,4.305,4.307,204.691,223.073,229.239
0.520,39.222,4.289,4.292,204.692,223.101,229.249
0.521,39.242,4.273,4.277,204.692,223.120,229.257
0.523,39.256,4.259,4.262,204.692,223.132,229.262
0.524,39.267,4.248,4.249,204.696,223.142,229.266
0.526,39.282,4.240,4.239,204.706,223.152,229.270
0.528,39.304,4.236,4.230,204.724,223.166,229.275
0.529,39.340,4.232,4.222,204.752,223.186,229.281
0.531,39.392,4.227,4.215,204.793,223.217,229.291
0.532,39.464,4.219,4.207,204.848,223.261,229.304
0.534,39.560,4.206,4.199,204.921,223.322,229.322
0.536,39.685,4.186,4.188,205.014,223.402,229.346
0.537,39.837,4.158,4.175,205.124,223.501,229.376
0.539,40.009,4.124,4.160,205.249,223.616,229.410
0.540,40.199,4.087,4.144,205.384,223.742,229.449
0.542,40.400,4.049,4.128,205.527,223.878,229.491
0.543,40.607,4.013,4.114,205.673,224.018,229.536
0.545,40.817,3.981,4.101,205.818,224.161,229.583
0.547,41.023,3.957,4.091,205.960,224.303,229.631
0.548,41.220,3.940,4.084,206.094,224.440,229.679
0.550,41.405,3.930,4.080,206.216,224.569,229.727
0.551,41.571,3.925,4.078,206.324,224.687,229.774
0.553,41.715,3.924,4.077,206.414,224.791,229.819
0.555,41.839,3.927,4.078,206.487,224.880,229.862
0.556,41.945,3.933,4.079,206.545,224.959,229.904
0.558,42.038,3.940,4.082,206.593,225.028,229.945
0.559,42.122,3.949,4.084,206.632,225.089,229.986
0.561,42.200,3.959,4.086,206.666,225.146,230.027
0.562,42.275,3.969,4.087,206.697,225.200,230.068
0.564,42.350,3.978,4.086,206.730,225.253,230.110
0.566,42.429,3.988,4.084,206.766,225.308,230.154
0.567,42.514,3.995,4.080,206.810,225.366,230.199
0.569,42.610,4.003,4.075,206.863,225.430,230.247
0.570,42.719,4.011,4.072,206.928,225.502,230.297
0.572,42.841,4.020,4.072,207.004,225.580,230.349
0.573,42.971,4.030,4.077,207.089,225.663,230.403
0.575,43.106,4.044,4.089,207.180,225.747,230.458
0.577,43.244,4.061,4.110,207.275,225.830,230.513
0.578,43.380,4.081,4.139,207.371,225.910,230.567
0.580,43.512,4.102,4.171,207.466,225.985,230.621
0.581,43.636,4.122,4.203,207.557,226.052,230.673
0.583,43.750,4.140,4.231,207.641,226.108,230.722
0.585,43.849,4.153,4.249,207.717,226.153,230.768
0.586,43.931,4.160,4.255,207.782,226.182,230.810
0.588,43.996,4.160,4.246,207.833,226.194,230.848
0.589,44.047,4.154,4.227,207.872,226.194,230.881
0.591,44.087,4.146,4.201,207.900,226.184,230.908
0.592,44.118,4.139,4.175,207.917,226.169,230.928
0.594,44.140,4.134,4.152,207.926,226.153,230.942
0.596,44.154,4.134,4.137,207.928,226.141,230.947
0.597,44.160,4.142,4.135,207.925,226.137,230.945
0.599,44.177,4.153,4.142,207.917,226.144,230.933
0.600,44.211,4.164,4.151,207.906,226.169,230.911
0.602,44.267,4.167,4.157,207.894,226.214,230.879
0.603,44.351,4.157,4.151,207.882,226.283,230.835
0.605,44.463,4.129,4.127,207.871,226.381,230.780
0.607,44.600,4.078,4.079,207.865,226.501,230.715
0.608,44.759,4.001,4.004,207.868,226.640,230.639
0.610,44.933,3.905,3.910,207.882,226.791,230.554
0.611,45.118,3.797,3.801,207.913,226.950,230.461
0.613,45.313,3.681,3.685,207.962,227.109,230.361
0.615,45.515,3.565,3.567,208.034,227.264,230.255
0.616,45.723,3.455,3.455,208.133,227.410,230.143
0.618,45.940,3.355,3.353,208.261,227.541,230.026
0.619,46.169,3.265,3.261,208.423,227.650,229.906
0.621,46.418,3.184,3.179,208.622,227.734,229.784
0.622,46.690,3.110,3.105,208.858,227.788,229.659
0.624,46.987,3.042,3.038,209.127,227.814,229.535
0.626,47.304,2.978,2.977,209.418,227.818,229.412
0.627,47.634,2.917,2.920,209.725,227.802,229.291
0.629,47.969,2.859,2.868,210.038,227.770,229.175
0.630,48.304,2.802,2.818,210.351,227.727,229.065
0.632,48.629,2.747,2.771,210.655,227.675,228.962
0.633,48.935,2.695,2.724,210.941,227.620,228.868
0.635,49.215,2.645,2.678,211.202,227.563,228.784
0.637,49.460,2.597,2.631,211.430,227.511,228.713
0.638,49.661,2.552,2.583,211.617,227.465,228.654
0.640,49.813,2.512,2.538,211.757,227.429,228.609
0.641,49.921,2.478,2.497,211.857,227.403,228.577
0.643,49.991,2.452,2.465,211.921,227.386,228.554
0.645,50.029,2.436,2.442,211.956,227.378,228.539
