"T","Distance","Radius","FreeRadius","X","Y","Z"
0.000,0.000,0.832,0.832,186.197,223.142,217.286
0.001,0.179,0.909,0.909,186.349,223.048,217.285
0.003,0.357,0.986,0.986,186.501,222.956,217.285
0.004,0.533,1.060,1.060,186.652,222.865,217.284
0.005,0.705,1.130,1.130,186.801,222.778,217.284
0.006,0.874,1.197,1.197,186.948,222.696,217.282
0.008,1.037,1.258,1.258,187.092,222.619,217.280
0.009,1.195,1.312,1.312,187.234,222.550,217.278
0.010,1.346,1.359,1.359,187.371,222.488,217.275
0.011,1.489,1.398,1.398,187.505,222.435,217.271
0.013,1.625,1.430,1.430,187.633,222.393,217.266
0.014,1.752,1.456,1.456,187.757,222.361,217.260
0.015,1.872,1.478,1.478,187.875,222.341,217.253
0.017,1.986,1.498,1.498,187.987,222.331,217.244
0.018,2.094,1.516,1.516,188.096,222.328,217.233
0.019,2.199,1.534,1.534,188.199,222.333,217.219
0.020,2.300,1.555,1.555,188.299,222.342,217.202
0.022,2.399,1.577,1.577,188.394,222.356,217.183
0.023,2.495,1.602,1.602,188.487,222.371,217.159
0.024,2.590,1.628,1.628,188.575,222.388,217.131
0.026,2.683,1.654,1.654,188.661,222.404,217.099
0.027,2.776,1.680,1.680,188.745,222.418,217.061
0.028,2.868,1.705,1.705,188.825,222.429,217.019
0.029,2.959,1.728,1.728,188.904,222.438,216.972
0.031,3.050,1.749,1.749,188.980,222.444,216.923
0.032,3.140,1.767,1.767,189.054,222.450,216.871
0.033,3.229,1.783,1.783,189.125,222.456,216.819
0.034,3.315,1.798,1.798,189.194,222.462,216.767
0.036,3.399,1.814,1.814,189.260,222.470,216.717
0.037,3.480,1.831,1.831,189.324,222.480,216.669
0.038,3.557,1.851,1.851,189.386,222.492,216.625
0.040,3.630,1.874,1.874,189.446,222.508,216.586
0.041,3.699,1.901,1.901,189.503,222.529,216.552
0.042,3.764,1.932,1.932,189.557,222.553,216.524
0.043,3.827,1.966,1.966,189.608,222.581,216.502
0.045,3.886,1.999,1.999,189.655,222.611,216.483
0.046,3.942,2.030,2.030,189.698,222.644,216.468
0.047,3.995,2.056,2.056,189.737,222.678,216.456
0.049,4.044,2.076,2.076,189.770,222.712,216.445
0.050,4.089,2.087,2.087,189.797,222.746,216.435
0.051,4.130,2.087,2.087,189.819,222.780,216.426
0.052,4.166,2.076,2.076,189.833,222.812,216.417
0.054,4.199,2.056,2.056,189.841,222.842,216.406
0.055,4.229,2.031,2.031,189.842,222.869,216.393
0.056,4.256,2.004,2.004,189.842,222.893,216.380
0.057,4.281,1.976,1.976,189.847,222.914,216.367
0.059,4.305,1.951,1.951,189.860,222.931,216.355
0.060,4.337,1.931,1.931,189.887,222.944,216.345
0.061,4.385,1.919,1.919,189.934,222.952,216.338
0.063,4.457,1.917,1.917,190.005,222.956,216.334
0.064,4.558,1.927,1.927,190.106,222.955,216.334
0.065,4.694,1.948,1.948,190.242,222.949,216.340
0.066,4.870,1.982,1.982,190.417,222.937,216.352
0.068,5.090,2.031,2.031,190.636,222.919,216.371
0.069,5.350,2.095,2.095,190.894,222.897,216.396
0.070,5.638,2.175,2.175,191.180,222.872,216.422
0.072,5.945,2.273,2.273,191.484,222.846,216.449
0.073,6.261,2.384,2.384,191.798,222.820,216.473
0.074,6.577,2.504,2.504,192.112,222.796,216.492
0.075,6.881,2.627,2.627,192.416,222.775,216.503
0.077,7.165,2.747,2.747,192.699,222.760,216.504
0.078,7.420,2.859,2.859,192.954,222.752,216.492
0.079,7.636,2.957,2.957,193.169,222.753,216.465
0.080,7.809,3.035,3.035,193.335,222.764,216.419
0.082,7.942,3.088,3.088,193.449,222.785,216.355
0.083,8.050,3.117,3.117,193.518,222.815,216.277
0.084,8.151,3.126,3.126,193.548,222.852,216.189
0.086,8.255,3.119,3.119,193.545,222.895,216.093
0.087,8.367,3.099,3.099,193.517,222.941,215.995
0.088,8.485,3.071,3.071,193.470,222.989,215.898
0.089,8.604,3.039,3.039,193.411,223.036,215.806
0.091,8.718,3.005,3.005,193.347,223.082,215.723
0.092,8.821,2.975,2.975,193.284,223.124,215.653
0.093,8.906,2.949,2.949,193.230,223.161,215.600
0.095,8.966,2.927,2.927,193.190,223.190,215.566
0.096,9.004,2.909,2.909,193.164,223.213,215.549
0.097,9.026,2.895,2.895,193.149,223.228,215.547
0.098,9.038,2.885,2.885,193.145,223.237,215.554
0.100,9.053,2.880,2.880,193.149,223.241,215.568
0.101,9.072,2.879,2.879,193.158,223.238,215.585
0.102,9.095,2.881,2.881,193.172,223.230,215.600
0.103,9.118,2.887,2.887,193.188,223.217,215.611
0.105,9.141,2.893,2.893,193.203,223.200,215.614
0.106,9.169,2.897,2.897,193.217,223.178,215.604
0.107,9.207,2.898,2.898,193.228,223.152,215.579
0.109,9.258,2.894,2.894,193.233,223.123,215.537
0.110,9.323,2.883,2.883,193.235,223.091,215.480
0.111,9.399,2.862,2.862,193.233,223.057,215.412
0.112,9.486,2.831,2.831,193.228,223.021,215.334
0.114,9.579,2.791,2.791,193.220,222.985,215.248
0.115,9.678,2.744,2.744,193.210,222.948,215.157
0.116,9.779,2.691,2.691,193.198,222.912,215.063
0.117,9.881,2.636,2.636,193.186,222.877,214.968
0.119,9.981,2.579,2.579,193.173,222.845,214.875
0.120,10.076,2.524,2.524,193.159,222.814,214.785
0.121,10.165,2.472,2.472,193.146,222.787,214.701
0.123,10.250,2.424,2.424,193.133,222.762,214.622
0.124,10.330,2.381,2.381,193.120,222.738,214.546
0.125,10.408,2.343,2.343,193.107,222.714,214.474
0.126,10.484,2.310,2.310,193.094,222.688,214.402
0.128,10.562,2.281,2.281,193.080,222.661,214.331
0.129,10.641,2.257,2.257,193.066,222.630,214.260
0.130,10.723,2.238,2.238,193.051,222.595,214.187
0.132,10.811,2.223,2.223,193.034,222.554,214.111
0.133,10.905,2.213,2.213,193.017,222.508,214.031
0.134,11.008,2.204,2.204,192.998,222.453,213.946
0.135,11.119,2.197,2.197,192.978,222.392,213.856
0.137,11.235,2.190,2.190,192.957,222.326,213.762
0.138,11.357,2.180,2.180,192.937,222.257,213.664
0.139,11.481,2.166,2.166,192.917,222.187,213.563
0.140,11.607,2.148,2.148,192.898,222.118,213.460
0.142,11.732,2.122,2.122,192.882,222.052,213.355
0.143,11.854,2.089,2.089,192.867,221.991,213.250
0.144,11.974,2.051,2.051,192.856,221.937,213.144
0.146,12.089,2.010,2.010,192.848,221.891,213.039
0.147,12.199,1.969,1.969,192.844,221.857,212.935
0.148,12.303,1.931,1.931,192.844,221.834,212.833
0.149,12.402,1.897,1.897,192.849,221.821,212.734
0.151,12.496,1.871,1.871,192.857,221.818,212.641
0.152,12.583,1.854,1.854,192.868,221.822,212.555
0.153,12.662,1.847,1.847,192.882,221.832,212.477
0.155,12.734,1.849,1.849,192.898,221.846,212.409
0.156,12.796,1.858,1.858,192.916,221.864,212.352
0.157,12.846,1.872,1.872,192.934,221.882,212.309
0.158,12.886,1.889,1.889,192.953,221.901,212.280
0.160,12.914,1.908,1.908,192.973,221.917,212.267
0.161,12.938,1.927,1.927,192.992,221.931,212.272
0.162,12.966,1.943,1.943,193.010,221.941,212.291
0.163,12.999,1.956,1.956,193.026,221.947,212.319
0.165,13.033,1.966,1.966,193.039,221.951,212.350
0.166,13.064,1.971,1.971,193.048,221.952,212.379
0.167,13.086,1.972,1.972,193.052,221.950,212.402
0.169,13.097,1.968,1.968,193.050,221.946,212.411
0.170,13.110,1.958,1.958,193.041,221.941,212.402
0.171,13.147,1.943,1.943,193.024,221.933,212.370
0.172,13.214,1.921,1.921,192.998,221.925,212.309
0.174,13.316,1.894,1.894,192.963,221.915,212.214
0.175,13.455,1.864,1.864,192.918,221.904,212.083
0.176,13.625,1.835,1.835,192.865,221.893,211.922
0.178,13.820,1.807,1.807,192.807,221.882,211.736
0.179,14.033,1.784,1.784,192.744,221.871,211.533
0.180,14.258,1.769,1.769,192.680,221.860,211.317
0.181,14.488,1.763,1.763,192.616,221.851,211.096
0.183,14.717,1.770,1.770,192.555,221.843,210.876
0.184,14.939,1.788,1.788,192.497,221.836,210.661
0.185,15.147,1.815,1.815,192.446,221.832,210.460
0.186,15.334,1.848,1.848,192.404,221.830,210.278
0.188,15.496,1.885,1.885,192.372,221.831,210.119
0.189,15.632,1.924,1.924,192.349,221.834,209.985
0.190,15.747,1.961,1.961,192.334,221.838,209.872
0.192,15.841,1.995,1.995,192.326,221.844,209.777
0.193,15.919,2.023,2.023,192.324,221.851,209.700
0.194,15.983,2.044,2.044,192.326,221.857,209.636
0.195,16.035,2.060,2.060,192.330,221.863,209.585
0.197,16.079,2.071,2.071,192.335,221.868,209.542
0.198,16.115,2.080,2.080,192.341,221.871,209.506
0.199,16.147,2.086,2.086,192.345,221.872,209.474
0.201,16.177,2.092,2.092,192.345,221.870,209.444
0.202,16.208,2.097,2.097,192.343,221.865,209.414
0.203,16.240,2.103,2.103,192.337,221.857,209.384
0.204,16.274,2.110,2.110,192.330,221.845,209.352
0.206,16.311,2.118,2.118,192.320,221.831,209.320
0.207,16.351,2.126,2.126,192.310,221.813,209.285
0.208,16.395,2.134,2.134,192.300,221.792,209.248
0.209,16.443,2.142,2.142,192.290,221.768,209.208
0.211,16.494,2.150,2.150,192.281,221.742,209.165
0.212,16.551,2.157,2.157,192.274,221.712,209.117
0.213,16.612,2.163,2.163,192.269,221.679,209.066
0.215,16.679,2.168,2.168,192.266,221.643,209.009
0.216,16.750,2.173,2.173,192.267,221.605,208.949
0.217,16.824,2.177,2.177,192.269,221.566,208.886
0.218,16.899,2.182,2.182,192.273,221.527,208.822
0.220,16.974,2.186,2.186,192.278,221.489,208.758
0.221,17.047,2.191,2.191,192.284,221.452,208.695
0.222,17.117,2.197,2.197,192.290,221.418,208.635
0.223,17.181,2.204,2.204,192.295,221.388,208.578
0.225,17.240,2.212,2.212,192.299,221.362,208.526
0.226,17.290,2.219,2.219,192.302,221.341,208.480
0.227,17.331,2.227,2.227,192.304,221.327,208.441
0.229,17.364,2.234,2.234,192.303,221.320,208.409
0.230,17.390,2.241,2.241,192.301,221.318,208.384
0.231,17.411,2.246,2.246,192.297,221.321,208.363
0.232,17.431,2.250,2.250,192.293,221.328,208.345
0.234,17.450,2.252,2.252,192.288,221.338,208.330
0.235,17.470,2.252,2.252,192.283,221.351,208.315
0.236,17.491,2.252,2.252,192.278,221.366,208.300
0.238,17.515,2.250,2.250,192.274,221.381,208.283
0.239,17.540,2.249,2.249,192.271,221.397,208.263
0.240,17.568,2.248,2.248,192.270,221.411,208.239
0.241,17.600,2.247,2.247,192.270,221.425,208.210
0.243,17.636,2.247,2.247,192.271,221.437,208.176
0.244,17.676,2.249,2.249,192.273,221.449,208.139
0.245,17.717,2.250,2.250,192.276,221.459,208.098
0.246,17.761,2.252,2.252,192.280,221.469,208.056
0.248,17.806,2.254,2.254,192.283,221.479,208.013
0.249,17.851,2.255,2.255,192.286,221.488,207.969
0.250,17.895,2.254,2.254,192.289,221.498,207.925
0.252,17.939,2.252,2.252,192.290,221.508,207.883
0.253,17.980,2.247,2.247,192.291,221.519,207.843
0.254,18.019,2.240,2.240,192.290,221.530,207.806
0.255,18.055,2.231,2.231,192.287,221.541,207.771
0.257,18.090,2.221,2.221,192.284,221.552,207.738
0.258,18.124,2.209,2.209,192.281,221.562,207.706
0.259,18.159,2.198,2.198,192.277,221.569,207.672
0.261,18.194,2.187,2.187,192.275,221.574,207.637
0.262,18.232,2.177,2.177,192.273,221.574,207.599
0.263,18.275,2.169,2.169,192.274,221.570,207.557
0.264,18.323,2.163,2.163,192.276,221.560,207.510
0.266,18.379,2.157,2.157,192.282,221.544,207.457
0.267,18.444,2.152,2.152,192.291,221.520,207.397
0.268,18.520,2.146,2.146,192.302,221.489,207.329
0.269,18.604,2.139,2.139,192.316,221.453,207.253
0.271,18.695,2.129,2.129,192.328,221.413,207.172
0.272,18.792,2.117,2.117,192.338,221.370,207.086
0.273,18.891,2.100,2.100,192.342,221.328,206.996
0.275,18.993,2.081,2.080,192.341,221.287,206.903
0.276,19.096,2.058,2.058,192.330,221.250,206.808
0.277,19.200,2.034,2.033,192.308,221.219,206.712
0.278,19.305,2.009,2.009,192.273,221.194,206.615
0.280,19.414,1.985,1.984,192.224,221.179,206.520
0.281,19.529,1.962,1.961,192.158,221.175,206.425
0.282,19.652,1.941,1.941,192.076,221.182,206.333
0.284,19.785,1.924,1.925,191.981,221.198,206.241
0.285,19.928,1.911,1.912,191.876,221.222,206.148
0.286,20.078,1.902,1.903,191.763,221.255,206.054
0.287,20.236,1.896,1.897,191.645,221.294,205.958
0.289,20.399,1.892,1.894,191.523,221.338,205.859
0.290,20.566,1.891,1.893,191.401,221.388,205.755
0.291,20.735,1.893,1.894,191.282,221.440,205.647
0.292,20.906,1.896,1.896,191.167,221.495,205.534
0.294,21.078,1.900,1.899,191.059,221.552,205.413
0.295,21.248,1.906,1.904,190.960,221.609,205.287
0.296,21.416,1.912,1.909,190.869,221.666,205.158
0.298,21.579,1.919,1.915,190.787,221.723,205.029
0.299,21.734,1.927,1.922,190.713,221.778,204.904
0.300,21.880,1.935,1.930,190.647,221.832,204.786
0.301,22.013,1.943,1.939,190.588,221.884,204.679
0.303,22.130,1.950,1.949,190.537,221.934,204.585
0.304,22.229,1.956,1.960,190.494,221.980,204.509
0.305,22.309,1.962,1.970,190.457,222.022,204.453
0.307,22.367,1.965,1.980,190.427,222.060,204.421
0.308,22.408,1.967,1.988,190.403,222.093,204.414
0.309,22.443,1.965,1.992,190.385,222.120,204.429
0.310,22.480,1.959,1.991,190.374,222.139,204.458
0.312,22.519,1.949,1.985,190.367,222.150,204.495
0.313,22.556,1.934,1.972,190.366,222.152,204.531
0.314,22.587,1.913,1.950,190.369,222.143,204.561
0.315,22.615,1.889,1.923,190.377,222.121,204.577
0.317,22.652,1.865,1.894,190.388,222.086,204.573
0.318,22.713,1.842,1.866,190.404,222.037,204.541
0.319,22.809,1.824,1.841,190.422,221.972,204.474
0.321,22.947,1.814,1.825,190.443,221.889,204.365
0.322,23.128,1.814,1.819,190.467,221.791,204.214
0.323,23.347,1.827,1.827,190.492,221.681,204.027
0.324,23.594,1.855,1.853,190.519,221.562,203.812
0.326,23.864,1.898,1.893,190.546,221.437,203.574
0.327,24.148,1.952,1.947,190.574,221.312,203.321
0.328,24.438,2.016,2.011,190.602,221.189,203.059
0.330,24.727,2.088,2.084,190.629,221.073,202.796
0.331,25.007,2.164,2.162,190.655,220.967,202.538
0.332,25.271,2.244,2.243,190.679,220.874,202.293
0.333,25.511,2.325,2.325,190.701,220.799,202.066
0.335,25.721,2.404,2.405,190.720,220.744,201.864
0.336,25.904,2.480,2.482,190.737,220.708,201.685
0.337,26.062,2.552,2.553,190.751,220.692,201.528
0.338,26.200,2.617,2.619,190.762,220.692,201.391
0.340,26.320,2.675,2.677,190.771,220.707,201.272
0.341,26.428,2.724,2.725,190.778,220.736,201.168
0.342,26.528,2.761,2.762,190.782,220.778,201.078
0.344,26.623,2.786,2.786,190.785,220.832,201.000
0.345,26.716,2.798,2.798,190.785,220.895,200.931
0.346,26.811,2.800,2.799,190.783,220.966,200.869
0.347,26.907,2.793,2.792,190.780,221.044,200.813
0.349,27.005,2.782,2.780,190.775,221.128,200.761
0.350,27.106,2.768,2.767,190.768,221.217,200.714
0.351,27.209,2.756,2.755,190.761,221.310,200.672
0.352,27.313,2.747,2.747,190.754,221.407,200.633
0.354,27.418,2.745,2.745,190.747,221.506,200.600
0.355,27.524,2.752,2.753,190.741,221.607,200.571
0.356,27.629,2.765,2.767,190.737,221.710,200.546
0.358,27.735,2.783,2.787,190.734,221.813,200.525
0.359,27.838,2.805,2.809,190.733,221.916,200.509
0.360,27.941,2.828,2.833,190.735,222.017,200.498
0.361,28.041,2.850,2.856,190.740,222.117,200.490
0.363,28.142,2.869,2.875,190.746,222.218,200.486
0.364,28.244,2.884,2.890,190.752,222.320,200.484
0.365,28.349,2.894,2.900,190.756,222.425,200.484
0.367,28.459,2.901,2.906,190.757,222.534,200.483
0.368,28.575,2.906,2.910,190.754,222.651,200.482
0.369,28.700,2.913,2.915,190.744,222.775,200.480
0.370,28.835,2.922,2.923,190.726,222.908,200.474
0.372,28.982,2.936,2.937,190.699,223.053,200.465
0.373,29.145,2.957,2.957,190.661,223.211,200.452
0.374,29.325,2.987,2.987,190.610,223.382,200.433
0.375,29.520,3.026,3.026,190.549,223.566,200.408
0.377,29.725,3.072,3.073,190.479,223.757,200.380
0.378,29.935,3.122,3.124,190.404,223.951,200.349
0.379,30.146,3.174,3.176,190.326,224.144,200.317
0.381,30.352,3.225,3.227,190.249,224.332,200.285
0.382,30.547,3.273,3.275,190.174,224.510,200.253
0.383,30.728,3.314,3.315,190.104,224.674,200.224
0.384,30.888,3.347,3.346,190.043,224.819,200.198
0.386,31.022,3.371,3.368,189.994,224.942,200.177
0.387,31.125,3.387,3.381,189.958,225.038,200.161
0.388,31.196,3.396,3.388,189.937,225.105,200.153
0.390,31.239,3.401,3.392,189.928,225.147,200.149
0.391,31.259,3.402,3.393,189.929,225.167,200.149
0.392,31.268,3.402,3.394,189.937,225.170,200.152
0.393,31.284,3.401,3.398,189.949,225.160,200.157
0.395,31.308,3.401,3.405,189.961,225.140,200.162
0.396,31.335,3.403,3.417,189.971,225.115,200.166
0.397,31.362,3.406,3.432,189.977,225.089,200.167
0.398,31.386,3.411,3.448,189.975,225.066,200.165
0.400,31.408,3.417,3.465,189.962,225.049,200.159
0.401,31.437,3.424,3.482,189.937,225.042,200.146
0.402,31.479,3.431,3.496,189.899,225.047,200.129
0.404,31.531,3.438,3.508,189.853,225.060,200.107
0.405,31.592,3.446,3.515,189.802,225.082,200.083
0.406,31.658,3.453,3.518,189.748,225.110,200.057
0.407,31.726,3.460,3.518,189.695,225.145,200.032
0.409,31.793,3.467,3.514,189.646,225.183,200.008
0.410,31.857,3.472,3.507,189.604,225.226,199.987
0.411,31.914,3.475,3.499,189.571,225.270,199.969
0.413,31.965,3.477,3.490,189.552,225.316,199.957
0.414,32.011,3.477,3.480,189.549,225.361,199.952
0.415,32.056,3.475,3.470,189.561,225.405,199.953
0.416,32.102,3.470,3.459,189.584,225.445,199.959
0.418,32.148,3.461,3.447,189.613,225.479,199.966
0.419,32.187,3.449,3.434,189.640,225.507,199.973
0.420,32.216,3.432,3.418,189.663,225.525,199.977
0.421,32.229,3.410,3.398,189.673,225.532,199.975
0.423,32.242,3.382,3.375,189.668,225.526,199.966
0.424,32.281,3.348,3.347,189.639,225.506,199.947
0.425,32.356,3.308,3.313,189.584,225.469,199.915
0.427,32.470,3.262,3.275,189.494,225.414,199.868
0.428,32.630,3.212,3.234,189.368,225.339,199.805
0.429,32.832,3.161,3.191,189.206,225.246,199.727
0.430,33.071,3.109,3.147,189.014,225.139,199.636
0.432,33.339,3.059,3.103,188.795,225.021,199.536
0.433,33.632,3.012,3.061,188.553,224.894,199.429
0.434,33.944,2.971,3.023,188.294,224.762,199.318
0.436,34.269,2.935,2.988,188.020,224.627,199.205
0.437,34.601,2.907,2.959,187.737,224.494,199.093
0.438,34.935,2.887,2.936,187.449,224.364,198.986
0.439,35.265,2.875,2.920,187.160,224.242,198.885
0.441,35.585,2.871,2.912,186.874,224.130,198.793
0.442,35.893,2.875,2.912,186.595,224.029,198.711
0.443,36.187,2.889,2.922,186.324,223.940,198.638
0.444,36.466,2.911,2.942,186.065,223.862,198.573
0.446,36.729,2.943,2.972,185.818,223.794,198.514
0.447,36.973,2.982,3.010,185.587,223.737,198.459
0.448,37.198,3.026,3.053,185.373,223.690,198.409
0.450,37.402,3.071,3.098,185.178,223.652,198.360
0.451,37.583,3.115,3.142,185.005,223.624,198.312
0.452,37.741,3.155,3.181,184.856,223.605,198.265
0.453,37.874,3.188,3.214,184.733,223.595,198.215
0.455,37.983,3.213,3.235,184.637,223.594,198.163
0.456,38.075,3.227,3.245,184.564,223.600,198.107
0.457,38.156,3.231,3.244,184.510,223.613,198.049
0.458,38.232,3.229,3.237,184.470,223.631,197.987
0.460,38.307,3.223,3.225,184.439,223.655,197.922
0.461,38.386,3.215,3.213,184.413,223.683,197.854
0.462,38.468,3.207,3.203,184.387,223.714,197.782
0.464,38.556,3.201,3.199,184.357,223.747,197.707
0.465,38.651,3.201,3.202,184.317,223.782,197.627
0.466,38.756,3.207,3.215,184.264,223.818,197.544
0.467,38.874,3.217,3.237,184.192,223.853,197.458
0.469,39.005,3.229,3.266,184.104,223.888,197.367
0.470,39.145,3.242,3.299,184.005,223.924,197.275
0.471,39.291,3.252,3.334,183.900,223.962,197.180
0.473,39.438,3.259,3.371,183.796,224.003,197.085
0.474,39.582,3.260,3.406,183.698,224.047,196.989
0.475,39.718,3.252,3.438,183.613,224.095,196.895
0.476,39.845,3.236,3.465,183.544,224.149,196.802
0.478,39.963,3.213,3.486,183.500,224.208,196.711
0.479,40.074,3.186,3.502,183.485,224.275,196.624
0.480,40.187,3.157,3.510,183.504,224.350,196.541
0.481,40.315,3.129,3.510,183.561,224.433,196.462
0.483,40.461,3.104,3.501,183.649,224.521,196.385
0.484,40.625,3.084,3.483,183.761,224.611,196.305
0.485,40.802,3.072,3.454,183.887,224.700,196.220
0.487,40.987,3.068,3.416,184.022,224.786,196.126
0.488,41.174,3.072,3.371,184.156,224.865,196.021
0.489,41.362,3.081,3.322,184.282,224.934,195.902
0.490,41.547,3.093,3.273,184.393,224.990,195.764
0.492,41.733,3.107,3.226,184.481,225.031,195.605
0.493,41.926,3.122,3.185,184.537,225.053,195.422
0.494,42.138,3.135,3.153,184.556,225.054,195.211
0.496,42.375,3.144,3.133,184.538,225.036,194.976
0.497,42.638,3.151,3.125,184.490,225.002,194.719
0.498,42.924,3.157,3.129,184.417,224.958,194.446
0.499,43.228,3.163,3.143,184.327,224.908,194.160
0.501,43.544,3.173,3.167,184.224,224.856,193.866
0.502,43.865,3.188,3.198,184.116,224.807,193.568
0.503,44.185,3.210,3.236,184.007,224.764,193.270
0.504,44.496,3.243,3.278,183.905,224.733,192.977
0.506,44.794,3.286,3.325,183.816,224.718,192.694
0.507,45.073,3.341,3.375,183.746,224.723,192.423
0.508,45.334,3.405,3.429,183.697,224.750,192.169
0.510,45.578,3.474,3.486,183.667,224.795,191.931
0.511,45.809,3.548,3.548,183.654,224.856,191.709
0.512,46.027,3.622,3.613,183.655,224.929,191.502
0.513,46.235,3.694,3.683,183.667,225.010,191.312
0.515,46.431,3.761,3.757,183.686,225.096,191.137
0.516,46.615,3.822,3.835,183.711,225.183,190.977
0.517,46.785,3.876,3.916,183.739,225.268,190.832
0.519,46.939,3.924,3.998,183.765,225.348,190.703
0.520,47.076,3.968,4.079,183.789,225.418,190.588
0.521,47.193,4.009,4.156,183.806,225.477,190.487
