"T","Distance","Radius","FreeRadius","X","Y","Z"
0.000,0.000,0.832,0.832,186.197,223.142,217.286
0.001,0.183,0.901,0.902,186.221,223.298,217.376
0.003,0.364,0.968,0.971,186.244,223.455,217.466
0.004,0.545,1.035,1.039,186.267,223.611,217.553
0.006,0.723,1.100,1.104,186.288,223.767,217.636
0.007,0.898,1.162,1.166,186.308,223.923,217.715
0.009,1.071,1.222,1.224,186.325,224.078,217.788
0.010,1.239,1.278,1.278,186.340,224.232,217.854
0.012,1.404,1.330,1.326,186.352,224.386,217.911
0.013,1.564,1.379,1.371,186.361,224.539,217.960
0.014,1.721,1.425,1.413,186.365,224.690,217.998
0.016,1.873,1.469,1.455,186.366,224.841,218.025
0.017,2.023,1.511,1.498,186.363,224.989,218.041
0.019,2.169,1.553,1.544,186.358,225.135,218.049
0.020,2.312,1.594,1.594,186.350,225.278,218.048
0.022,2.451,1.635,1.649,186.341,225.417,218.039
0.023,2.586,1.676,1.708,186.331,225.551,218.024
0.025,2.717,1.717,1.769,186.321,225.679,218.003
0.026,2.842,1.758,1.829,186.311,225.802,217.978
0.027,2.962,1.799,1.885,186.302,225.917,217.949
0.029,3.075,1.839,1.937,186.294,226.026,217.917
0.030,3.183,1.878,1.981,186.288,226.127,217.883
0.032,3.285,1.916,2.017,186.283,226.223,217.848
0.033,3.384,1.953,2.045,186.277,226.315,217.813
0.035,3.480,1.991,2.069,186.269,226.404,217.778
0.036,3.574,2.027,2.090,186.259,226.492,217.744
0.038,3.669,2.064,2.112,186.246,226.580,217.711
0.039,3.764,2.101,2.135,186.229,226.669,217.682
0.041,3.863,2.139,2.163,186.206,226.762,217.656
0.042,3.966,2.177,2.196,186.178,226.858,217.634
0.043,4.076,2.217,2.236,186.142,226.961,217.618
0.045,4.191,2.259,2.281,186.100,227.068,217.605
0.046,4.312,2.303,2.330,186.053,227.178,217.594
0.048,4.436,2.352,2.384,186.001,227.291,217.584
0.049,4.563,2.404,2.440,185.945,227.403,217.574
0.051,4.689,2.462,2.500,185.887,227.515,217.561
0.052,4.815,2.525,2.561,185.827,227.625,217.544
0.054,4.939,2.592,2.623,185.766,227.730,217.521
0.055,5.059,2.659,2.684,185.706,227.830,217.491
0.056,5.176,2.724,2.743,185.647,227.923,217.453
0.058,5.289,2.786,2.798,185.590,228.008,217.405
0.059,5.400,2.842,2.847,185.536,228.086,217.348
0.061,5.508,2.890,2.890,185.485,228.157,217.284
0.062,5.614,2.928,2.924,185.438,228.222,217.215
0.064,5.717,2.957,2.952,185.396,228.282,217.142
0.065,5.818,2.979,2.974,185.358,228.338,217.067
0.067,5.915,2.995,2.991,185.327,228.389,216.991
0.068,6.008,3.007,3.004,185.301,228.438,216.916
0.069,6.096,3.015,3.014,185.283,228.485,216.844
0.071,6.179,3.023,3.023,185.272,228.531,216.775
0.072,6.258,3.030,3.031,185.268,228.576,216.712
0.074,6.333,3.037,3.039,185.269,228.622,216.652
0.075,6.406,3.045,3.046,185.275,228.669,216.596
0.077,6.479,3.052,3.053,185.282,228.719,216.543
0.078,6.554,3.059,3.059,185.290,228.772,216.492
0.080,6.630,3.065,3.066,185.296,228.831,216.443
0.081,6.710,3.072,3.072,185.300,228.895,216.395
0.082,6.795,3.079,3.079,185.298,228.965,216.348
0.084,6.888,3.086,3.086,185.289,229.044,216.300
0.085,6.989,3.094,3.094,185.273,229.131,216.251
0.087,7.098,3.103,3.103,185.249,229.226,216.202
0.088,7.213,3.114,3.114,185.219,229.325,216.154
0.090,7.328,3.127,3.127,185.186,229.427,216.109
0.091,7.442,3.143,3.143,185.152,229.527,216.066
0.093,7.550,3.162,3.162,185.119,229.623,216.029
0.094,7.650,3.182,3.182,185.089,229.712,215.998
0.096,7.736,3.205,3.205,185.065,229.791,215.973
0.097,7.806,3.228,3.228,185.048,229.858,215.958
0.098,7.858,3.253,3.253,185.041,229.909,215.952
0.100,7.892,3.277,3.277,185.046,229.942,215.957
0.101,7.918,3.300,3.300,185.062,229.959,215.969
0.103,7.947,3.322,3.322,185.086,229.964,215.984
0.104,7.982,3.341,3.341,185.118,229.959,215.996
0.106,8.020,3.353,3.353,185.154,229.948,216.003
0.107,8.062,3.357,3.357,185.193,229.933,215.998
0.109,8.109,3.351,3.351,185.233,229.919,215.978
0.110,8.167,3.332,3.332,185.272,229.907,215.938
0.111,8.241,3.299,3.299,185.309,229.903,215.873
0.113,8.341,3.250,3.250,185.341,229.908,215.779
0.114,8.470,3.190,3.190,185.366,229.924,215.653
0.116,8.625,3.122,3.122,185.387,229.951,215.502
0.117,8.800,3.051,3.051,185.402,229.986,215.331
0.119,8.989,2.980,2.981,185.413,230.027,215.147
0.120,9.185,2.914,2.914,185.421,230.071,214.956
0.122,9.383,2.857,2.857,185.427,230.118,214.764
0.123,9.574,2.811,2.811,185.430,230.164,214.578
0.124,9.754,2.774,2.774,185.433,230.208,214.404
0.126,9.914,2.746,2.746,185.435,230.248,214.249
0.127,10.049,2.725,2.725,185.437,230.281,214.118
0.129,10.156,2.709,2.709,185.441,230.307,214.014
0.130,10.238,2.696,2.696,185.445,230.327,213.935
0.132,10.299,2.687,2.687,185.450,230.342,213.876
0.133,10.341,2.678,2.678,185.455,230.353,213.836
0.135,10.368,2.671,2.671,185.461,230.362,213.811
0.136,10.384,2.665,2.665,185.468,230.369,213.798
0.137,10.395,2.660,2.660,185.475,230.376,213.794
0.139,10.406,2.656,2.656,185.483,230.384,213.797
0.140,10.420,2.654,2.654,185.490,230.394,213.802
0.142,10.436,2.652,2.652,185.499,230.407,213.807
0.143,10.454,2.652,2.652,185.507,230.423,213.809
0.145,10.475,2.651,2.650,185.513,230.442,213.804
0.146,10.502,2.647,2.647,185.517,230.464,213.788
0.148,10.540,2.640,2.640,185.517,230.488,213.759
0.149,10.593,2.629,2.628,185.513,230.513,213.712
0.151,10.666,2.610,2.610,185.503,230.540,213.644
0.152,10.764,2.584,2.584,185.487,230.567,213.552
0.153,10.889,2.549,2.550,185.462,230.595,213.432
0.155,11.047,2.510,2.510,185.429,230.623,213.281
0.156,11.238,2.468,2.469,185.387,230.651,213.096
0.158,11.458,2.427,2.428,185.339,230.678,212.883
0.159,11.698,2.390,2.391,185.288,230.706,212.650
0.161,11.951,2.360,2.361,185.238,230.733,212.404
0.162,12.209,2.340,2.339,185.194,230.759,212.151
0.164,12.463,2.330,2.328,185.158,230.786,211.901
0.165,12.707,2.327,2.325,185.136,230.812,211.660
0.166,12.933,2.327,2.325,185.129,230.838,211.435
0.168,13.136,2.329,2.325,185.143,230.864,211.235
0.169,13.311,2.326,2.324,185.182,230.890,211.066
0.171,13.461,2.318,2.316,185.245,230.916,210.933
0.172,13.595,2.299,2.300,185.330,230.941,210.832
0.174,13.720,2.270,2.274,185.430,230.965,210.760
0.175,13.843,2.232,2.241,185.541,230.988,210.712
0.177,13.964,2.190,2.202,185.657,231.009,210.685
0.178,14.083,2.146,2.162,185.773,231.028,210.674
0.179,14.195,2.104,2.122,185.884,231.045,210.676
0.181,14.297,2.067,2.086,185.985,231.058,210.686
0.182,14.385,2.038,2.055,186.071,231.068,210.700
0.184,14.452,2.019,2.032,186.136,231.075,210.715
0.185,14.498,2.007,2.015,186.180,231.078,210.729
0.187,14.528,2.001,2.003,186.208,231.079,210.739
0.188,14.544,1.998,1.996,186.222,231.078,210.747
0.190,14.551,1.997,1.993,186.228,231.077,210.751
0.191,14.553,1.996,1.993,186.229,231.076,210.751
0.192,14.558,1.992,1.995,186.230,231.076,210.747
0.194,14.569,1.986,1.998,186.236,231.079,210.737
0.195,14.591,1.977,2.001,186.250,231.086,210.722
0.197,14.626,1.965,2.004,186.276,231.096,210.700
0.198,14.680,1.953,2.005,186.319,231.112,210.672
0.200,14.750,1.940,2.005,186.377,231.133,210.638
0.201,14.833,1.927,2.001,186.446,231.158,210.601
0.203,14.924,1.914,1.994,186.524,231.187,210.562
0.204,15.020,1.903,1.983,186.606,231.218,210.523
0.205,15.117,1.893,1.970,186.688,231.251,210.486
0.207,15.210,1.886,1.957,186.768,231.285,210.453
0.208,15.296,1.882,1.944,186.842,231.320,210.425
0.210,15.371,1.881,1.934,186.905,231.355,210.406
0.211,15.432,1.884,1.927,186.955,231.388,210.395
0.213,15.478,1.892,1.925,186.990,231.420,210.395
0.214,15.516,1.903,1.928,187.013,231.449,210.404
0.216,15.550,1.914,1.933,187.029,231.475,210.418
0.217,15.582,1.924,1.937,187.045,231.498,210.433
0.219,15.614,1.929,1.937,187.066,231.517,210.448
0.220,15.650,1.926,1.930,187.097,231.531,210.459
0.221,15.697,1.913,1.914,187.144,231.540,210.463
0.223,15.765,1.887,1.886,187.211,231.543,210.456
0.224,15.861,1.848,1.846,187.305,231.540,210.437
0.226,15.993,1.801,1.798,187.431,231.531,210.401
0.227,16.161,1.751,1.748,187.590,231.515,210.347
0.229,16.361,1.702,1.701,187.776,231.494,210.279
0.230,16.583,1.660,1.659,187.983,231.470,210.198
0.232,16.823,1.630,1.630,188.203,231.446,210.108
0.233,17.070,1.615,1.616,188.429,231.422,210.010
0.234,17.320,1.618,1.618,188.656,231.402,209.908
0.236,17.563,1.633,1.634,188.875,231.386,209.804
0.237,17.793,1.658,1.658,189.081,231.376,209.700
0.239,18.003,1.688,1.688,189.265,231.376,209.601
0.240,18.187,1.720,1.720,189.423,231.386,209.507
0.242,18.344,1.749,1.749,189.553,231.406,209.420
0.243,18.480,1.773,1.773,189.659,231.435,209.340
0.245,18.600,1.788,1.788,189.745,231.473,209.267
0.246,18.707,1.797,1.797,189.816,231.516,209.199
0.247,18.806,1.799,1.799,189.876,231.565,209.137
0.249,18.900,1.796,1.796,189.929,231.617,209.079
0.250,18.991,1.787,1.787,189.980,231.672,209.027
0.252,19.082,1.774,1.774,190.033,231.727,208.979
0.253,19.173,1.757,1.757,190.091,231.782,208.935
0.255,19.269,1.738,1.738,190.160,231.835,208.894
0.256,19.368,1.719,1.719,190.237,231.886,208.858
0.258,19.471,1.702,1.702,190.323,231.933,208.828
0.259,19.574,1.691,1.691,190.413,231.978,208.804
0.260,19.678,1.688,1.688,190.507,232.019,208.788
0.262,19.780,1.695,1.695,190.602,232.056,208.781
0.263,19.879,1.715,1.715,190.696,232.089,208.784
0.265,19.975,1.746,1.746,190.786,232.117,208.799
0.266,20.068,1.786,1.786,190.872,232.140,208.825
0.268,20.158,1.831,1.831,190.951,232.158,208.866
0.269,20.247,1.877,1.877,191.021,232.171,208.920
0.271,20.338,1.920,1.920,191.082,232.179,208.985
0.272,20.431,1.956,1.956,191.137,232.185,209.060
0.274,20.526,1.983,1.983,191.186,232.189,209.141
0.275,20.622,1.999,1.999,191.231,232.193,209.226
0.276,20.717,2.005,2.005,191.271,232.197,209.312
0.278,20.810,2.004,2.004,191.308,232.204,209.397
0.279,20.898,1.997,1.997,191.344,232.215,209.477
0.281,20.981,1.986,1.986,191.379,232.230,209.551
0.282,21.057,1.972,1.972,191.414,232.252,209.615
0.284,21.128,1.958,1.958,191.450,232.280,209.668
0.285,21.194,1.943,1.943,191.486,232.314,209.712
0.287,21.257,1.928,1.928,191.522,232.353,209.747
0.288,21.319,1.914,1.914,191.557,232.397,209.774
0.289,21.380,1.900,1.900,191.590,232.443,209.794
0.291,21.440,1.888,1.888,191.622,232.492,209.808
0.292,21.499,1.877,1.877,191.652,232.542,209.817
0.294,21.556,1.867,1.867,191.678,232.593,209.823
0.295,21.612,1.858,1.858,191.701,232.644,209.825
0.297,21.666,1.851,1.851,191.721,232.694,209.825
0.298,21.717,1.843,1.843,191.737,232.742,209.825
0.300,21.768,1.836,1.836,191.752,232.791,209.823
0.301,21.819,1.827,1.827,191.766,232.840,209.822
0.302,21.871,1.817,1.817,191.782,232.890,209.820
0.304,21.926,1.805,1.805,191.800,232.942,209.820
0.305,21.985,1.792,1.792,191.823,232.996,209.821
0.307,22.049,1.778,1.778,191.851,233.054,209.825
0.308,22.121,1.764,1.764,191.887,233.115,209.830
0.310,22.201,1.752,1.752,191.931,233.181,209.839
0.311,22.291,1.743,1.743,191.985,233.252,209.851
0.313,22.390,1.738,1.738,192.048,233.328,209.867
0.314,22.495,1.737,1.737,192.117,233.405,209.885
0.315,22.604,1.740,1.740,192.191,233.483,209.905
0.317,22.714,1.747,1.747,192.267,233.559,209.927
0.318,22.823,1.756,1.756,192.343,233.633,209.950
0.320,22.928,1.765,1.765,192.418,233.702,209.973
0.321,23.025,1.774,1.774,192.489,233.765,209.996
0.323,23.114,1.782,1.782,192.554,233.820,210.018
0.324,23.190,1.787,1.787,192.612,233.865,210.040
0.326,23.253,1.789,1.789,192.661,233.900,210.059
0.327,23.304,1.790,1.790,192.701,233.925,210.077
0.329,23.343,1.790,1.790,192.734,233.941,210.092
0.330,23.374,1.789,1.789,192.760,233.950,210.105
0.331,23.397,1.790,1.790,192.781,233.954,210.116
0.333,23.415,1.792,1.792,192.796,233.952,210.124
0.334,23.428,1.797,1.797,192.807,233.947,210.129
0.336,23.439,1.804,1.804,192.815,233.940,210.131
0.337,23.450,1.812,1.812,192.821,233.931,210.130
0.339,23.460,1.820,1.820,192.826,233.923,210.126
0.340,23.471,1.829,1.829,192.829,233.916,210.118
0.342,23.482,1.836,1.836,192.832,233.911,210.109
0.343,23.492,1.842,1.842,192.834,233.909,210.099
0.344,23.502,1.845,1.845,192.837,233.911,210.089
0.346,23.512,1.845,1.845,192.839,233.917,210.082
0.347,23.524,1.842,1.842,192.841,233.929,210.078
0.349,23.542,1.836,1.836,192.843,233.946,210.078
0.350,23.568,1.826,1.826,192.846,233.971,210.085
0.352,23.603,1.814,1.814,192.850,234.004,210.098
0.353,23.650,1.799,1.799,192.854,234.045,210.119
0.355,23.708,1.781,1.781,192.861,234.095,210.148
0.356,23.776,1.761,1.761,192.874,234.152,210.184
0.357,23.854,1.738,1.738,192.894,234.215,210.225
0.359,23.942,1.714,1.714,192.925,234.283,210.270
0.360,24.039,1.689,1.689,192.968,234.356,210.318
0.362,24.148,1.665,1.665,193.027,234.433,210.369
0.363,24.270,1.640,1.640,193.104,234.512,210.419
0.365,24.406,1.617,1.617,193.201,234.593,210.470
0.366,24.559,1.596,1.596,193.322,234.674,210.519
0.368,24.732,1.577,1.577,193.466,234.756,210.565
0.369,24.921,1.563,1.563,193.630,234.839,210.607
0.370,25.121,1.552,1.552,193.807,234.927,210.645
0.372,25.330,1.547,1.547,193.990,235.021,210.679
0.373,25.541,1.548,1.548,194.172,235.124,210.707
0.375,25.750,1.557,1.557,194.346,235.238,210.730
0.376,25.956,1.572,1.572,194.507,235.366,210.746
0.378,26.157,1.595,1.595,194.646,235.509,210.755
0.379,26.353,1.625,1.625,194.759,235.671,210.756
0.381,26.552,1.662,1.662,194.837,235.853,210.749
0.382,26.759,1.707,1.707,194.878,236.056,210.733
0.384,26.979,1.759,1.759,194.886,236.274,210.713
0.385,27.211,1.819,1.819,194.866,236.504,210.689
0.386,27.452,1.882,1.882,194.824,236.740,210.665
0.388,27.697,1.945,1.945,194.765,236.978,210.644
0.389,27.942,2.004,2.004,194.694,237.211,210.627
0.391,28.179,2.053,2.053,194.616,237.435,210.618
0.392,28.404,2.089,2.089,194.537,237.646,210.620
0.394,28.611,2.107,2.107,194.461,237.837,210.634
0.395,28.793,2.104,2.104,194.394,238.004,210.664
0.397,28.953,2.082,2.082,194.338,238.147,210.709
0.398,29.094,2.047,2.047,194.291,238.267,210.768
0.399,29.222,2.003,2.003,194.254,238.366,210.839
0.401,29.340,1.956,1.956,194.223,238.448,210.918
0.402,29.451,1.912,1.912,194.199,238.515,211.003
0.404,29.558,1.876,1.876,194.179,238.569,211.094
0.405,29.661,1.851,1.852,194.164,238.613,211.186
0.407,29.761,1.839,1.840,194.150,238.649,211.278
0.408,29.857,1.836,1.836,194.138,238.681,211.368
0.410,29.948,1.838,1.839,194.126,238.710,211.453
0.411,30.035,1.843,1.844,194.113,238.738,211.534
0.412,30.121,1.848,1.849,194.098,238.767,211.613
0.414,30.207,1.850,1.850,194.081,238.797,211.692
0.415,30.296,1.846,1.845,194.061,238.830,211.773
0.417,30.390,1.837,1.835,194.038,238.866,211.856
0.418,30.492,1.822,1.819,194.010,238.908,211.945
0.420,30.604,1.803,1.799,193.977,238.956,212.041
0.421,30.729,1.780,1.777,193.939,239.011,212.146
0.423,30.868,1.754,1.751,193.894,239.076,212.261
0.424,31.024,1.726,1.725,193.841,239.149,212.387
0.425,31.192,1.696,1.698,193.780,239.231,212.521
0.427,31.370,1.664,1.671,193.709,239.320,212.657
0.428,31.553,1.631,1.641,193.626,239.415,212.791
0.430,31.741,1.596,1.607,193.530,239.515,212.918
0.431,31.930,1.558,1.569,193.420,239.617,213.032
0.433,32.121,1.517,1.525,193.293,239.722,213.130
0.434,32.314,1.474,1.475,193.149,239.826,213.205
0.436,32.514,1.427,1.417,192.986,239.930,213.255
0.437,32.724,1.379,1.356,192.802,240.032,213.272
0.438,32.950,1.331,1.295,192.600,240.130,213.258
0.440,33.190,1.284,1.242,192.383,240.225,213.215
0.441,33.440,1.242,1.200,192.160,240.316,213.152
0.443,33.694,1.206,1.175,191.935,240.402,213.073
0.444,33.944,1.176,1.173,191.715,240.484,212.985
0.446,34.185,1.156,1.195,191.506,240.562,212.893
0.447,34.409,1.145,1.239,191.314,240.634,212.804
0.449,34.607,1.141,1.296,191.146,240.700,212.723
0.450,34.772,1.143,1.357,191.008,240.761,212.656
0.452,34.898,1.149,1.416,190.905,240.816,212.609
0.453,34.986,1.160,1.463,190.837,240.867,212.583
0.454,35.049,1.173,1.493,190.800,240.916,212.574
0.456,35.102,1.187,1.497,190.788,240.967,212.580
0.457,35.161,1.201,1.479,190.796,241.024,212.596
0.459,35.235,1.215,1.445,190.818,241.089,212.621
0.460,35.323,1.227,1.399,190.850,241.166,212.650
0.462,35.425,1.235,1.348,190.886,241.257,212.681
0.463,35.544,1.240,1.297,190.922,241.366,212.710
0.465,35.680,1.240,1.251,190.951,241.497,212.733
0.466,35.836,1.234,1.216,190.969,241.651,212.749
0.467,36.010,1.225,1.191,190.977,241.825,212.755
0.469,36.200,1.213,1.175,190.974,242.014,212.751
0.470,36.399,1.201,1.168,190.963,242.213,212.737
0.472,36.604,1.190,1.167,190.945,242.416,212.713
0.473,36.809,1.184,1.173,190.921,242.617,212.678
0.475,37.011,1.184,1.183,190.892,242.810,212.631
0.476,37.204,1.191,1.198,190.860,242.992,212.572
0.478,37.385,1.206,1.216,190.826,243.155,212.502
0.479,37.551,1.226,1.237,190.792,243.295,212.418
0.480,37.703,1.253,1.262,190.758,243.407,212.323
0.482,37.843,1.283,1.289,190.724,243.495,212.218
0.483,37.975,1.317,1.320,190.692,243.560,212.108
0.485,38.100,1.354,1.354,190.662,243.608,211.997
0.486,38.218,1.393,1.391,190.632,243.640,211.887
0.488,38.328,1.431,1.429,190.605,243.660,211.782
0.489,38.428,1.468,1.466,190.580,243.671,211.687
0.491,38.514,1.503,1.501,190.558,243.676,211.604
0.492,38.583,1.533,1.532,190.538,243.679,211.537
0.493,38.633,1.557,1.557,190.521,243.683,211.490
0.495,38.664,1.574,1.575,190.508,243.689,211.464
0.496,38.680,1.582,1.584,190.497,243.696,211.454
0.498,38.690,1.584,1.586,190.490,243.704,211.456
0.499,38.703,1.580,1.583,190.487,243.710,211.467
0.501,38.719,1.573,1.576,190.486,243.715,211.482
0.502,38.734,1.565,1.567,190.489,243.716,211.497
0.504,38.747,1.557,1.558,190.496,243.713,211.508
0.505,38.761,1.551,1.551,190.505,243.704,211.511
0.507,38.783,1.549,1.547,190.518,243.689,211.502
0.508,38.821,1.550,1.546,190.535,243.665,211.476
0.509,38.875,1.552,1.547,190.553,243.636,211.435
0.511,38.941,1.555,1.549,190.569,243.602,211.380
0.512,39.017,1.556,1.552,190.580,243.567,211.314
0.514,39.100,1.556,1.553,190.582,243.532,211.239
0.515,39.187,1.553,1.553,190.573,243.501,211.158
0.517,39.279,1.546,1.552,190.550,243.476,211.072
0.518,39.377,1.536,1.549,190.508,243.460,210.986
0.520,39.483,1.523,1.546,190.445,243.455,210.900
0.521,39.603,1.510,1.544,190.357,243.463,210.819
0.522,39.743,1.497,1.544,190.243,243.487,210.742
0.524,39.901,1.486,1.548,190.106,243.525,210.672
0.525,40.076,1.477,1.555,189.951,243.574,210.608
0.527,40.261,1.471,1.568,189.785,243.632,210.549
0.528,40.453,1.470,1.584,189.613,243.696,210.495
0.530,40.644,1.472,1.603,189.441,243.764,210.445
0.531,40.830,1.478,1.623,189.274,243.833,210.400
0.533,41.005,1.488,1.641,189.118,243.900,210.359
0.534,41.162,1.502,1.658,188.979,243.962,210.321
0.535,41.295,1.520,1.671,188.863,244.018,210.287
0.537,41.402,1.542,1.679,188.772,244.065,210.255
0.538,41.485,1.566,1.683,188.705,244.103,210.226
0.540,41.548,1.590,1.682,188.657,244.134,210.199
0.541,41.594,1.612,1.677,188.627,244.157,210.173
0.543,41.629,1.629,1.669,188.610,244.173,210.147
0.544,41.657,1.641,1.657,188.603,244.183,210.122
0.546,41.682,1.644,1.643,188.603,244.187,210.097
0.547,41.709,1.638,1.626,188.607,244.185,210.070
0.548,41.738,1.624,1.607,188.611,244.179,210.042
0.550,41.770,1.604,1.587,188.613,244.169,210.012
0.551,41.805,1.581,1.566,188.609,244.156,209.980
0.553,41.838,1.555,1.546,188.602,244.145,209.949
0.554,41.869,1.531,1.527,188.589,244.138,209.922
0.556,41.897,1.509,1.509,188.572,244.140,209.899
0.557,41.927,1.490,1.493,188.551,244.154,209.884
0.559,41.967,1.474,1.479,188.525,244.184,209.879
0.560,42.024,1.458,1.463,188.495,244.232,209.885
0.562,42.106,1.442,1.445,188.461,244.304,209.905
0.563,42.218,1.422,1.424,188.423,244.402,209.942
0.564,42.363,1.397,1.398,188.380,244.530,209.996
0.566,42.539,1.366,1.366,188.335,244.684,210.068
0.567,42.740,1.329,1.328,188.288,244.859,210.154
0.569,42.958,1.287,1.286,188.240,245.047,210.253
0.570,43.186,1.246,1.245,188.193,245.244,210.360
0.572,43.419,1.210,1.209,188.149,245.442,210.474
0.573,43.648,1.182,1.182,188.109,245.634,210.592
0.575,43.868,1.167,1.167,188.074,245.816,210.711
0.576,44.072,1.169,1.169,188.045,245.980,210.828
0.577,44.254,1.189,1.189,188.024,246.121,210.942
0.579,44.409,1.224,1.224,188.012,246.233,211.049
0.580,44.542,1.268,1.268,188.008,246.320,211.149
0.582,44.658,1.317,1.317,188.009,246.389,211.242
0.583,44.761,1.366,1.366,188.016,246.446,211.327
0.585,44.854,1.409,1.409,188.025,246.495,211.405
0.586,44.940,1.443,1.443,188.036,246.544,211.476
0.588,45.024,1.465,1.465,188.047,246.599,211.538
0.589,45.110,1.478,1.478,188.056,246.664,211.593
