"T"   ,"Distance" ,"Radius" ,"FreeRadius" ,"X"     ,"Y"     ,"Z"
0.000 ,0.000      ,0.832    ,0.832        ,186.197 ,223.142 ,217.286
0.002 ,0.186      ,0.899    ,0.899        ,186.221 ,223.301 ,217.378
0.003 ,0.371      ,0.965    ,0.965        ,186.245 ,223.461 ,217.469
0.005 ,0.555      ,1.030    ,1.031        ,186.268 ,223.620 ,217.557
0.007 ,0.737      ,1.094    ,1.094        ,186.290 ,223.779 ,217.642
0.008 ,0.915      ,1.156    ,1.156        ,186.310 ,223.938 ,217.722
0.010 ,1.090      ,1.215    ,1.215        ,186.327 ,224.096 ,217.796
0.012 ,1.262      ,1.272    ,1.272        ,186.342 ,224.253 ,217.862
0.014 ,1.429      ,1.327    ,1.326        ,186.354 ,224.410 ,217.920
0.015 ,1.592      ,1.380    ,1.378        ,186.362 ,224.565 ,217.967
0.017 ,1.750      ,1.432    ,1.430        ,186.366 ,224.720 ,218.004
0.019 ,1.905      ,1.484    ,1.482        ,186.366 ,224.873 ,218.029
0.020 ,2.057      ,1.535    ,1.535        ,186.362 ,225.023 ,218.044
0.022 ,2.205      ,1.587    ,1.590        ,186.356 ,225.171 ,218.049
0.024 ,2.350      ,1.638    ,1.645        ,186.348 ,225.316 ,218.046
0.025 ,2.491      ,1.688    ,1.700        ,186.338 ,225.456 ,218.035
0.027 ,2.627      ,1.735    ,1.754        ,186.328 ,225.591 ,218.018
0.029 ,2.759      ,1.779    ,1.807        ,186.317 ,225.720 ,217.996
0.030 ,2.885      ,1.819    ,1.856        ,186.307 ,225.843 ,217.968
0.032 ,3.004      ,1.854    ,1.903        ,186.299 ,225.958 ,217.938
0.034 ,3.117      ,1.885    ,1.945        ,186.292 ,226.066 ,217.904
0.035 ,3.225      ,1.913    ,1.984        ,186.286 ,226.167 ,217.869
0.037 ,3.327      ,1.941    ,2.019        ,186.280 ,226.263 ,217.833
0.039 ,3.426      ,1.969    ,2.049        ,186.274 ,226.355 ,217.797
0.041 ,3.524      ,1.998    ,2.075        ,186.265 ,226.445 ,217.762
0.042 ,3.620      ,2.031    ,2.097        ,186.254 ,226.534 ,217.728
0.044 ,3.716      ,2.066    ,2.118        ,186.238 ,226.624 ,217.696
0.046 ,3.815      ,2.104    ,2.139        ,186.218 ,226.717 ,217.668
0.047 ,3.918      ,2.145    ,2.164        ,186.192 ,226.813 ,217.644
0.049 ,4.026      ,2.190    ,2.196        ,186.159 ,226.915 ,217.624
0.051 ,4.142      ,2.237    ,2.237        ,186.119 ,227.022 ,217.610
0.052 ,4.263      ,2.287    ,2.288        ,186.073 ,227.133 ,217.598
0.054 ,4.388      ,2.340    ,2.347        ,186.021 ,227.247 ,217.588
0.056 ,4.516      ,2.395    ,2.413        ,185.966 ,227.362 ,217.578
0.057 ,4.646      ,2.453    ,2.481        ,185.907 ,227.477 ,217.565
0.059 ,4.774      ,2.513    ,2.550        ,185.847 ,227.589 ,217.550
0.061 ,4.901      ,2.575    ,2.617        ,185.785 ,227.698 ,217.529
0.063 ,5.025      ,2.638    ,2.679        ,185.723 ,227.802 ,217.501
0.064 ,5.145      ,2.701    ,2.736        ,185.663 ,227.899 ,217.464
0.066 ,5.261      ,2.762    ,2.787        ,185.604 ,227.988 ,217.417
0.068 ,5.375      ,2.818    ,2.834        ,185.548 ,228.069 ,217.362
0.069 ,5.485      ,2.869    ,2.875        ,185.495 ,228.143 ,217.298
0.071 ,5.594      ,2.911    ,2.911        ,185.447 ,228.210 ,217.229
0.073 ,5.700      ,2.945    ,2.940        ,185.402 ,228.272 ,217.155
0.074 ,5.803      ,2.971    ,2.965        ,185.364 ,228.329 ,217.079
0.076 ,5.902      ,2.991    ,2.985        ,185.330 ,228.383 ,217.001
0.078 ,5.998      ,3.005    ,3.001        ,185.304 ,228.433 ,216.925
0.079 ,6.088      ,3.015    ,3.013        ,185.284 ,228.481 ,216.851
0.081 ,6.173      ,3.023    ,3.023        ,185.272 ,228.528 ,216.780
0.083 ,6.253      ,3.029    ,3.030        ,185.268 ,228.574 ,216.715
0.084 ,6.330      ,3.034    ,3.036        ,185.269 ,228.620 ,216.654
0.086 ,6.405      ,3.039    ,3.040        ,185.275 ,228.668 ,216.597
0.088 ,6.480      ,3.043    ,3.044        ,185.282 ,228.719 ,216.543
0.090 ,6.555      ,3.048    ,3.049        ,185.290 ,228.774 ,216.491
0.091 ,6.633      ,3.054    ,3.053        ,185.297 ,228.833 ,216.441
0.093 ,6.715      ,3.060    ,3.060        ,185.300 ,228.899 ,216.392
0.095 ,6.802      ,3.068    ,3.067        ,185.297 ,228.971 ,216.344
0.096 ,6.897      ,3.077    ,3.077        ,185.288 ,229.052 ,216.295
0.098 ,7.001      ,3.089    ,3.089        ,185.270 ,229.142 ,216.245
0.100 ,7.114      ,3.102    ,3.102        ,185.245 ,229.239 ,216.196
0.101 ,7.231      ,3.118    ,3.118        ,185.214 ,229.341 ,216.147
0.103 ,7.349      ,3.137    ,3.137        ,185.180 ,229.444 ,216.101
0.105 ,7.464      ,3.157    ,3.157        ,185.145 ,229.546 ,216.059
0.106 ,7.573      ,3.179    ,3.179        ,185.112 ,229.642 ,216.022
0.108 ,7.671      ,3.201    ,3.202        ,185.083 ,229.731 ,215.991
0.110 ,7.755      ,3.224    ,3.224        ,185.060 ,229.809 ,215.969
0.111 ,7.822      ,3.246    ,3.246        ,185.045 ,229.873 ,215.955
0.113 ,7.870      ,3.267    ,3.267        ,185.042 ,229.920 ,215.953
0.115 ,7.901      ,3.285    ,3.285        ,185.050 ,229.949 ,215.960
0.117 ,7.927      ,3.301    ,3.301        ,185.069 ,229.962 ,215.974
0.118 ,7.959      ,3.313    ,3.313        ,185.097 ,229.963 ,215.989
0.120 ,7.995      ,3.320    ,3.320        ,185.130 ,229.955 ,216.000
0.122 ,8.036      ,3.321    ,3.321        ,185.169 ,229.942 ,216.003
0.123 ,8.080      ,3.316    ,3.316        ,185.209 ,229.927 ,215.992
0.125 ,8.132      ,3.304    ,3.304        ,185.250 ,229.913 ,215.964
0.127 ,8.197      ,3.283    ,3.283        ,185.289 ,229.904 ,215.912
0.128 ,8.284      ,3.254    ,3.254        ,185.324 ,229.904 ,215.833
0.130 ,8.400      ,3.213    ,3.213        ,185.354 ,229.914 ,215.722
0.132 ,8.545      ,3.162    ,3.162        ,185.377 ,229.937 ,215.580
0.133 ,8.714      ,3.100    ,3.100        ,185.395 ,229.969 ,215.415
0.135 ,8.901      ,3.032    ,3.032        ,185.409 ,230.007 ,215.233
0.137 ,9.099      ,2.962    ,2.962        ,185.418 ,230.052 ,215.040
0.139 ,9.300      ,2.894    ,2.894        ,185.425 ,230.098 ,214.844
0.140 ,9.499      ,2.832    ,2.832        ,185.429 ,230.146 ,214.652
0.142 ,9.687      ,2.781    ,2.781        ,185.432 ,230.192 ,214.469
0.144 ,9.859      ,2.742    ,2.742        ,185.434 ,230.234 ,214.303
0.145 ,10.006     ,2.715    ,2.715        ,185.436 ,230.270 ,214.160
0.147 ,10.124     ,2.696    ,2.696        ,185.440 ,230.299 ,214.045
0.149 ,10.216     ,2.684    ,2.684        ,185.444 ,230.321 ,213.957
0.150 ,10.283     ,2.676    ,2.676        ,185.448 ,230.338 ,213.891
0.152 ,10.331     ,2.670    ,2.670        ,185.454 ,230.350 ,213.845
0.154 ,10.362     ,2.665    ,2.665        ,185.460 ,230.360 ,213.816
0.155 ,10.381     ,2.661    ,2.661        ,185.466 ,230.368 ,213.800
0.157 ,10.393     ,2.657    ,2.657        ,185.473 ,230.375 ,213.795
0.159 ,10.404     ,2.654    ,2.654        ,185.481 ,230.382 ,213.796
0.160 ,10.417     ,2.652    ,2.652        ,185.489 ,230.392 ,213.801
0.162 ,10.433     ,2.651    ,2.651        ,185.497 ,230.405 ,213.806
0.164 ,10.451     ,2.650    ,2.650        ,185.506 ,230.421 ,213.809
0.166 ,10.472     ,2.649    ,2.649        ,185.512 ,230.440 ,213.805
0.167 ,10.499     ,2.645    ,2.644        ,185.517 ,230.462 ,213.790
0.169 ,10.536     ,2.636    ,2.635        ,185.517 ,230.486 ,213.761
0.171 ,10.589     ,2.621    ,2.620        ,185.513 ,230.512 ,213.715
0.172 ,10.663     ,2.597    ,2.598        ,185.504 ,230.539 ,213.647
0.174 ,10.762     ,2.567    ,2.567        ,185.487 ,230.567 ,213.554
0.176 ,10.890     ,2.531    ,2.532        ,185.462 ,230.595 ,213.431
0.177 ,11.051     ,2.493    ,2.494        ,185.428 ,230.624 ,213.277
0.179 ,11.247     ,2.457    ,2.458        ,185.385 ,230.652 ,213.088
0.181 ,11.472     ,2.425    ,2.425        ,185.336 ,230.680 ,212.869
0.182 ,11.719     ,2.400    ,2.399        ,185.284 ,230.708 ,212.630
0.184 ,11.977     ,2.383    ,2.381        ,185.234 ,230.735 ,212.378
0.186 ,12.239     ,2.372    ,2.369        ,185.189 ,230.762 ,212.121
0.188 ,12.498     ,2.363    ,2.359        ,185.154 ,230.789 ,211.867
0.189 ,12.744     ,2.354    ,2.351        ,185.133 ,230.816 ,211.623
0.191 ,12.971     ,2.342    ,2.340        ,185.130 ,230.843 ,211.398
0.193 ,13.172     ,2.324    ,2.326        ,185.149 ,230.869 ,211.199
0.194 ,13.345     ,2.299    ,2.307        ,185.193 ,230.896 ,211.034
0.196 ,13.493     ,2.269    ,2.283        ,185.264 ,230.922 ,210.906
0.198 ,13.627     ,2.236    ,2.256        ,185.354 ,230.947 ,210.811
0.199 ,13.754     ,2.201    ,2.227        ,185.460 ,230.972 ,210.744
0.201 ,13.879     ,2.166    ,2.196        ,185.575 ,230.994 ,210.702
0.203 ,14.001     ,2.133    ,2.164        ,185.693 ,231.015 ,210.680
0.204 ,14.120     ,2.103    ,2.132        ,185.811 ,231.034 ,210.673
0.206 ,14.232     ,2.077    ,2.101        ,185.921 ,231.050 ,210.678
0.208 ,14.332     ,2.055    ,2.073        ,186.019 ,231.062 ,210.691
0.209 ,14.413     ,2.037    ,2.048        ,186.099 ,231.071 ,210.706
0.211 ,14.473     ,2.023    ,2.027        ,186.157 ,231.077 ,210.721
0.213 ,14.512     ,2.014    ,2.012        ,186.194 ,231.079 ,210.734
0.215 ,14.536     ,2.010    ,2.002        ,186.215 ,231.079 ,210.743
0.216 ,14.548     ,2.008    ,1.996        ,186.225 ,231.078 ,210.750
0.218 ,14.552     ,2.007    ,1.994        ,186.229 ,231.076 ,210.752
0.220 ,14.554     ,2.005    ,1.994        ,186.230 ,231.076 ,210.750
0.221 ,14.562     ,2.001    ,1.996        ,186.233 ,231.078 ,210.743
0.223 ,14.579     ,1.992    ,1.997        ,186.242 ,231.082 ,210.730
0.225 ,14.609     ,1.980    ,1.998        ,186.263 ,231.091 ,210.711
0.226 ,14.655     ,1.964    ,1.998        ,186.299 ,231.105 ,210.685
0.228 ,14.720     ,1.947    ,1.997        ,186.352 ,231.124 ,210.652
0.230 ,14.800     ,1.929    ,1.994        ,186.419 ,231.148 ,210.616
0.231 ,14.891     ,1.913    ,1.988        ,186.495 ,231.176 ,210.576
0.233 ,14.987     ,1.899    ,1.981        ,186.577 ,231.207 ,210.536
0.235 ,15.086     ,1.888    ,1.971        ,186.662 ,231.240 ,210.497
0.236 ,15.182     ,1.880    ,1.960        ,186.745 ,231.275 ,210.462
0.238 ,15.272     ,1.876    ,1.949        ,186.822 ,231.310 ,210.432
0.240 ,15.352     ,1.875    ,1.940        ,186.890 ,231.346 ,210.410
0.242 ,15.418     ,1.879    ,1.933        ,186.945 ,231.380 ,210.397
0.243 ,15.469     ,1.886    ,1.929        ,186.983 ,231.413 ,210.395
0.245 ,15.509     ,1.895    ,1.928        ,187.009 ,231.443 ,210.402
0.247 ,15.544     ,1.905    ,1.928        ,187.027 ,231.471 ,210.415
0.248 ,15.577     ,1.911    ,1.926        ,187.043 ,231.494 ,210.431
0.250 ,15.609     ,1.912    ,1.919        ,187.063 ,231.514 ,210.446
0.252 ,15.645     ,1.904    ,1.906        ,187.092 ,231.529 ,210.458
0.253 ,15.691     ,1.885    ,1.883        ,187.138 ,231.539 ,210.463
0.255 ,15.758     ,1.856    ,1.852        ,187.204 ,231.543 ,210.457
0.257 ,15.853     ,1.820    ,1.816        ,187.298 ,231.541 ,210.438
0.258 ,15.985     ,1.782    ,1.779        ,187.424 ,231.531 ,210.403
0.260 ,16.155     ,1.746    ,1.744        ,187.585 ,231.515 ,210.349
0.262 ,16.358     ,1.716    ,1.715        ,187.774 ,231.494 ,210.280
0.264 ,16.585     ,1.696    ,1.696        ,187.984 ,231.470 ,210.198
0.265 ,16.829     ,1.687    ,1.688        ,188.208 ,231.445 ,210.105
0.267 ,17.081     ,1.687    ,1.688        ,188.439 ,231.421 ,210.005
0.269 ,17.335     ,1.693    ,1.694        ,188.670 ,231.400 ,209.901
0.270 ,17.583     ,1.704    ,1.705        ,188.893 ,231.385 ,209.795
0.272 ,17.816     ,1.717    ,1.717        ,189.101 ,231.376 ,209.690
0.274 ,18.027     ,1.730    ,1.730        ,189.286 ,231.376 ,209.589
0.275 ,18.211     ,1.742    ,1.742        ,189.443 ,231.388 ,209.494
0.277 ,18.367     ,1.751    ,1.751        ,189.572 ,231.410 ,209.407
0.279 ,18.503     ,1.758    ,1.757        ,189.676 ,231.442 ,209.327
0.280 ,18.622     ,1.760    ,1.760        ,189.760 ,231.481 ,209.253
0.282 ,18.729     ,1.759    ,1.759        ,189.830 ,231.527 ,209.185
0.284 ,18.829     ,1.752    ,1.752        ,189.889 ,231.577 ,209.123
0.285 ,18.924     ,1.741    ,1.741        ,189.942 ,231.631 ,209.066
0.287 ,19.016     ,1.727    ,1.727        ,189.994 ,231.687 ,209.013
0.289 ,19.108     ,1.713    ,1.713        ,190.049 ,231.744 ,208.966
0.291 ,19.203     ,1.699    ,1.699        ,190.112 ,231.799 ,208.922
0.292 ,19.301     ,1.689    ,1.689        ,190.185 ,231.852 ,208.882
0.294 ,19.404     ,1.684    ,1.683        ,190.267 ,231.903 ,208.847
0.296 ,19.509     ,1.684    ,1.684        ,190.356 ,231.950 ,208.818
0.297 ,19.615     ,1.690    ,1.690        ,190.450 ,231.994 ,208.797
0.299 ,19.720     ,1.702    ,1.702        ,190.546 ,232.034 ,208.784
0.301 ,19.823     ,1.721    ,1.721        ,190.642 ,232.070 ,208.781
0.302 ,19.923     ,1.747    ,1.747        ,190.737 ,232.102 ,208.789
0.304 ,20.019     ,1.780    ,1.780        ,190.827 ,232.128 ,208.810
0.306 ,20.112     ,1.818    ,1.818        ,190.911 ,232.149 ,208.843
0.307 ,20.203     ,1.858    ,1.858        ,190.987 ,232.165 ,208.891
0.309 ,20.295     ,1.898    ,1.898        ,191.054 ,232.176 ,208.953
0.311 ,20.388     ,1.934    ,1.934        ,191.113 ,232.183 ,209.025
0.313 ,20.484     ,1.963    ,1.963        ,191.166 ,232.187 ,209.105
0.314 ,20.582     ,1.982    ,1.982        ,191.213 ,232.191 ,209.191
0.316 ,20.679     ,1.992    ,1.992        ,191.255 ,232.195 ,209.278
0.318 ,20.775     ,1.994    ,1.994        ,191.294 ,232.201 ,209.365
0.319 ,20.867     ,1.990    ,1.990        ,191.331 ,232.211 ,209.449
0.321 ,20.954     ,1.982    ,1.982        ,191.367 ,232.224 ,209.527
0.323 ,21.034     ,1.971    ,1.971        ,191.403 ,232.244 ,209.596
0.324 ,21.107     ,1.960    ,1.960        ,191.439 ,232.271 ,209.653
0.326 ,21.175     ,1.948    ,1.948        ,191.476 ,232.304 ,209.701
0.328 ,21.241     ,1.937    ,1.937        ,191.512 ,232.343 ,209.739
0.329 ,21.304     ,1.925    ,1.925        ,191.548 ,232.386 ,209.768
0.331 ,21.366     ,1.913    ,1.913        ,191.583 ,232.432 ,209.790
0.333 ,21.427     ,1.901    ,1.901        ,191.616 ,232.482 ,209.805
0.334 ,21.488     ,1.887    ,1.887        ,191.646 ,232.533 ,209.816
0.336 ,21.547     ,1.874    ,1.874        ,191.674 ,232.585 ,209.822
0.338 ,21.604     ,1.861    ,1.861        ,191.698 ,232.637 ,209.825
0.340 ,21.659     ,1.848    ,1.848        ,191.719 ,232.687 ,209.825
0.341 ,21.712     ,1.837    ,1.837        ,191.736 ,232.737 ,209.825
0.343 ,21.763     ,1.827    ,1.827        ,191.750 ,232.787 ,209.823
0.345 ,21.815     ,1.820    ,1.820        ,191.765 ,232.836 ,209.822
0.346 ,21.868     ,1.815    ,1.815        ,191.781 ,232.887 ,209.821
0.348 ,21.924     ,1.810    ,1.810        ,191.800 ,232.940 ,209.820
0.350 ,21.984     ,1.805    ,1.805        ,191.823 ,232.995 ,209.821
0.351 ,22.050     ,1.799    ,1.799        ,191.852 ,233.054 ,209.825
0.353 ,22.123     ,1.790    ,1.790        ,191.888 ,233.117 ,209.831
0.355 ,22.205     ,1.779    ,1.779        ,191.934 ,233.184 ,209.840
0.356 ,22.297     ,1.765    ,1.765        ,191.989 ,233.257 ,209.852
0.358 ,22.399     ,1.751    ,1.751        ,192.054 ,233.334 ,209.868
0.360 ,22.506     ,1.738    ,1.738        ,192.125 ,233.413 ,209.887
0.361 ,22.618     ,1.729    ,1.729        ,192.200 ,233.492 ,209.908
0.363 ,22.730     ,1.725    ,1.725        ,192.278 ,233.570 ,209.930
0.365 ,22.840     ,1.727    ,1.727        ,192.355 ,233.645 ,209.953
0.367 ,22.946     ,1.736    ,1.736        ,192.431 ,233.714 ,209.977
0.368 ,23.044     ,1.748    ,1.748        ,192.503 ,233.777 ,210.001
0.370 ,23.131     ,1.763    ,1.763        ,192.568 ,233.831 ,210.023
0.372 ,23.206     ,1.777    ,1.777        ,192.625 ,233.875 ,210.045
0.373 ,23.267     ,1.788    ,1.788        ,192.672 ,233.907 ,210.064
0.375 ,23.315     ,1.795    ,1.795        ,192.711 ,233.930 ,210.082
0.377 ,23.353     ,1.797    ,1.797        ,192.742 ,233.945 ,210.097
0.378 ,23.382     ,1.797    ,1.797        ,192.767 ,233.953 ,210.110
0.380 ,23.403     ,1.796    ,1.796        ,192.786 ,233.954 ,210.120
0.382 ,23.420     ,1.796    ,1.796        ,192.800 ,233.951 ,210.127
0.383 ,23.432     ,1.797    ,1.797        ,192.810 ,233.945 ,210.131
0.385 ,23.443     ,1.802    ,1.802        ,192.818 ,233.937 ,210.132
0.387 ,23.454     ,1.809    ,1.809        ,192.823 ,233.928 ,210.129
0.389 ,23.466     ,1.819    ,1.819        ,192.828 ,233.920 ,210.122
0.390 ,23.477     ,1.829    ,1.829        ,192.831 ,233.913 ,210.113
0.392 ,23.489     ,1.839    ,1.839        ,192.834 ,233.909 ,210.103
0.394 ,23.500     ,1.847    ,1.847        ,192.837 ,233.908 ,210.092
0.395 ,23.510     ,1.853    ,1.853        ,192.839 ,233.912 ,210.084
0.397 ,23.520     ,1.855    ,1.855        ,192.841 ,233.921 ,210.078
0.399 ,23.536     ,1.853    ,1.853        ,192.843 ,233.936 ,210.076
0.400 ,23.559     ,1.845    ,1.845        ,192.846 ,233.958 ,210.080
0.402 ,23.591     ,1.832    ,1.832        ,192.849 ,233.989 ,210.091
0.404 ,23.635     ,1.812    ,1.812        ,192.852 ,234.028 ,210.110
0.405 ,23.692     ,1.785    ,1.785        ,192.857 ,234.077 ,210.138
0.407 ,23.759     ,1.753    ,1.753        ,192.866 ,234.134 ,210.173
0.409 ,23.837     ,1.718    ,1.718        ,192.882 ,234.198 ,210.215
0.410 ,23.925     ,1.683    ,1.683        ,192.909 ,234.267 ,210.261
0.412 ,24.022     ,1.651    ,1.651        ,192.948 ,234.341 ,210.310
0.414 ,24.129     ,1.626    ,1.626        ,193.003 ,234.418 ,210.361
0.416 ,24.249     ,1.608    ,1.608        ,193.077 ,234.497 ,210.412
0.417 ,24.383     ,1.599    ,1.599        ,193.172 ,234.578 ,210.462
0.419 ,24.535     ,1.598    ,1.598        ,193.292 ,234.657 ,210.509
0.421 ,24.706     ,1.602    ,1.602        ,193.438 ,234.736 ,210.552
0.422 ,24.896     ,1.611    ,1.611        ,193.607 ,234.814 ,210.591
0.424 ,25.100     ,1.625    ,1.625        ,193.790 ,234.897 ,210.626
0.426 ,25.312     ,1.641    ,1.641        ,193.980 ,234.987 ,210.656
0.427 ,25.528     ,1.659    ,1.659        ,194.169 ,235.086 ,210.682
0.429 ,25.742     ,1.678    ,1.678        ,194.350 ,235.199 ,210.704
0.431 ,25.952     ,1.696    ,1.696        ,194.514 ,235.329 ,210.721
0.432 ,26.158     ,1.712    ,1.712        ,194.655 ,235.479 ,210.735
0.434 ,26.362     ,1.726    ,1.726        ,194.763 ,235.652 ,210.746
0.436 ,26.573     ,1.737    ,1.737        ,194.832 ,235.851 ,210.752
0.438 ,26.800     ,1.745    ,1.746        ,194.859 ,236.076 ,210.754
0.439 ,27.045     ,1.754    ,1.754        ,194.849 ,236.321 ,210.754
0.441 ,27.304     ,1.764    ,1.765        ,194.811 ,236.577 ,210.749
0.443 ,27.569     ,1.779    ,1.779        ,194.753 ,236.835 ,210.741
0.444 ,27.832     ,1.799    ,1.799        ,194.682 ,237.088 ,210.730
0.446 ,28.083     ,1.827    ,1.827        ,194.607 ,237.328 ,210.716
0.448 ,28.313     ,1.861    ,1.860        ,194.535 ,237.545 ,210.699
0.449 ,28.511     ,1.898    ,1.897        ,194.475 ,237.733 ,210.679
0.451 ,28.668     ,1.936    ,1.934        ,194.434 ,237.883 ,210.656
0.453 ,28.776     ,1.972    ,1.971        ,194.420 ,237.987 ,210.630
0.454 ,28.844     ,2.003    ,2.003        ,194.435 ,238.046 ,210.603
0.456 ,28.901     ,2.027    ,2.029        ,194.479 ,238.069 ,210.574
0.458 ,28.978     ,2.045    ,2.049        ,194.550 ,238.064 ,210.545
0.459 ,29.084     ,2.060    ,2.065        ,194.648 ,238.037 ,210.516
0.461 ,29.217     ,2.073    ,2.079        ,194.772 ,237.996 ,210.490
0.463 ,29.375     ,2.087    ,2.091        ,194.921 ,237.949 ,210.465
0.465 ,29.555     ,2.103    ,2.104        ,195.094 ,237.904 ,210.445
0.466 ,29.754     ,2.124    ,2.118        ,195.290 ,237.869 ,210.428
0.468 ,29.973     ,2.151    ,2.137        ,195.508 ,237.851 ,210.417
0.470 ,30.212     ,2.185    ,2.165        ,195.746 ,237.855 ,210.413
0.471 ,30.466     ,2.228    ,2.207        ,195.999 ,237.880 ,210.414
0.473 ,30.731     ,2.281    ,2.265        ,196.261 ,237.922 ,210.421
0.475 ,31.002     ,2.345    ,2.344        ,196.525 ,237.980 ,210.433
0.476 ,31.274     ,2.422    ,2.446        ,196.787 ,238.049 ,210.451
0.478 ,31.539     ,2.506    ,2.565        ,197.039 ,238.128 ,210.475
0.480 ,31.793     ,2.592    ,2.692        ,197.277 ,238.212 ,210.504
0.481 ,32.028     ,2.676    ,2.818        ,197.494 ,238.299 ,210.537
0.483 ,32.241     ,2.751    ,2.935        ,197.683 ,238.385 ,210.576
0.485 ,32.424     ,2.813    ,3.034        ,197.840 ,238.469 ,210.619
