"T","Distance","Radius","FreeRadius","X","Y","Z"
0.000,0.000,1.094,1.094,191.776,169.511,149.694
0.001,0.034,1.125,1.125,191.800,169.491,149.679
0.002,0.069,1.155,1.156,191.823,169.472,149.662
0.003,0.103,1.186,1.186,191.845,169.454,149.642
0.005,0.139,1.216,1.217,191.865,169.436,149.618
0.006,0.178,1.247,1.247,191.882,169.420,149.587
0.007,0.221,1.277,1.278,191.895,169.405,149.548
0.008,0.272,1.308,1.308,191.904,169.393,149.500
0.009,0.331,1.338,1.338,191.908,169.382,149.442
0.010,0.403,1.368,1.368,191.907,169.374,149.370
0.012,0.489,1.399,1.398,191.899,169.369,149.285
0.013,0.590,1.428,1.427,191.884,169.368,149.185
0.014,0.705,1.455,1.454,191.864,169.369,149.072
0.015,0.830,1.480,1.478,191.840,169.374,148.950
0.016,0.961,1.501,1.499,191.813,169.381,148.821
0.017,1.095,1.518,1.516,191.787,169.392,148.691
0.019,1.228,1.530,1.528,191.761,169.406,148.561
0.020,1.356,1.535,1.535,191.738,169.422,148.435
0.021,1.477,1.535,1.536,191.720,169.442,148.318
0.022,1.587,1.528,1.531,191.708,169.465,148.211
0.023,1.683,1.517,1.521,191.704,169.490,148.118
0.024,1.763,1.502,1.509,191.709,169.518,148.043
0.026,1.832,1.486,1.493,191.725,169.550,147.985
0.027,1.896,1.469,1.477,191.754,169.587,147.942
0.028,1.963,1.454,1.460,191.795,169.631,147.910
0.029,2.042,1.441,1.445,191.850,169.683,147.889
0.030,2.136,1.432,1.432,191.921,169.743,147.877
0.031,2.249,1.428,1.422,192.008,169.815,147.869
0.033,2.382,1.429,1.417,192.112,169.899,147.866
0.034,2.539,1.438,1.418,192.234,169.996,147.864
0.035,2.719,1.452,1.428,192.376,170.108,147.861
0.036,2.926,1.475,1.447,192.538,170.236,147.855
0.037,3.155,1.504,1.477,192.718,170.378,147.846
0.038,3.401,1.543,1.520,192.910,170.530,147.835
0.040,3.657,1.589,1.578,193.109,170.690,147.822
0.041,3.917,1.645,1.651,193.311,170.854,147.807
0.042,4.175,1.710,1.739,193.510,171.018,147.793
0.043,4.425,1.780,1.839,193.701,171.179,147.778
0.044,4.661,1.855,1.944,193.880,171.333,147.765
0.045,4.877,1.931,2.052,194.041,171.476,147.754
0.047,5.067,2.006,2.156,194.179,171.606,147.745
0.048,5.225,2.078,2.252,194.289,171.719,147.740
0.049,5.351,2.143,2.336,194.371,171.814,147.737
0.050,5.449,2.201,2.403,194.429,171.894,147.737
0.051,5.524,2.247,2.449,194.465,171.959,147.738
0.052,5.579,2.283,2.473,194.484,172.011,147.740
0.054,5.621,2.309,2.479,194.487,172.053,147.741
0.055,5.655,2.328,2.472,194.480,172.086,147.741
0.056,5.685,2.340,2.454,194.464,172.111,147.739
0.057,5.713,2.347,2.430,194.443,172.131,147.734
0.058,5.741,2.351,2.403,194.422,172.147,147.726
0.059,5.769,2.352,2.377,194.402,172.160,147.713
0.061,5.795,2.354,2.355,194.387,172.174,147.696
0.062,5.821,2.356,2.341,194.375,172.187,147.677
0.063,5.846,2.360,2.334,194.368,172.203,147.659
0.064,5.870,2.366,2.335,194.366,172.221,147.644
0.065,5.896,2.373,2.342,194.368,172.244,147.633
0.066,5.925,2.383,2.355,194.376,172.272,147.629
0.068,5.963,2.396,2.374,194.389,172.307,147.634
0.069,6.012,2.411,2.396,194.408,172.350,147.651
0.070,6.077,2.429,2.423,194.433,172.401,147.682
0.071,6.161,2.451,2.453,194.464,172.464,147.728
0.072,6.262,2.476,2.486,194.500,172.536,147.789
0.073,6.378,2.504,2.520,194.540,172.617,147.862
0.075,6.504,2.533,2.554,194.581,172.705,147.942
0.076,6.634,2.563,2.589,194.622,172.797,148.024
0.077,6.765,2.592,2.622,194.660,172.892,148.105
0.078,6.891,2.620,2.652,194.693,172.989,148.180
0.079,7.010,2.646,2.679,194.718,173.085,148.245
0.080,7.117,2.669,2.702,194.735,173.178,148.295
0.081,7.212,2.688,2.719,194.741,173.267,148.327
0.083,7.295,2.702,2.731,194.733,173.349,148.336
0.084,7.375,2.713,2.738,194.712,173.425,148.320
0.085,7.460,2.720,2.741,194.678,173.493,148.282
0.086,7.553,2.723,2.740,194.636,173.556,148.227
0.087,7.655,2.724,2.736,194.588,173.613,148.158
0.088,7.764,2.722,2.730,194.536,173.666,148.078
0.090,7.877,2.718,2.722,194.483,173.715,147.992
0.091,7.989,2.712,2.713,194.431,173.762,147.903
0.092,8.099,2.705,2.703,194.383,173.806,147.816
0.093,8.201,2.696,2.692,194.342,173.849,147.732
0.094,8.293,2.686,2.682,194.310,173.891,147.658
0.095,8.373,2.676,2.673,194.289,173.934,147.594
0.097,8.444,2.667,2.663,194.276,173.979,147.539
0.098,8.512,2.658,2.655,194.270,174.026,147.491
0.099,8.579,2.650,2.648,194.268,174.078,147.448
0.100,8.650,2.643,2.643,194.267,174.136,147.408
0.101,8.726,2.639,2.639,194.265,174.201,147.368
0.102,8.809,2.637,2.638,194.260,174.274,147.328
0.104,8.904,2.638,2.639,194.249,174.357,147.283
0.105,9.013,2.642,2.643,194.230,174.451,147.233
0.106,9.138,2.650,2.651,194.200,174.557,147.175
0.107,9.281,2.662,2.662,194.158,174.677,147.108
0.108,9.439,2.678,2.678,194.106,174.806,147.034
0.109,9.608,2.699,2.699,194.046,174.943,146.954
0.111,9.782,2.726,2.726,193.981,175.082,146.873
0.112,9.957,2.758,2.758,193.912,175.221,146.792
0.113,10.128,2.795,2.795,193.842,175.356,146.713
0.114,10.289,2.836,2.836,193.775,175.483,146.640
0.115,10.437,2.879,2.879,193.711,175.599,146.574
0.116,10.567,2.922,2.922,193.654,175.701,146.518
0.118,10.673,2.965,2.965,193.606,175.785,146.475
0.119,10.751,3.006,3.006,193.569,175.848,146.446
0.120,10.806,3.043,3.043,193.542,175.892,146.430
0.121,10.840,3.074,3.074,193.522,175.920,146.425
0.122,10.859,3.099,3.100,193.509,175.934,146.427
0.123,10.872,3.118,3.118,193.500,175.937,146.436
0.125,10.886,3.132,3.132,193.493,175.932,146.447
0.126,10.904,3.140,3.140,193.487,175.921,146.460
0.127,10.923,3.144,3.144,193.479,175.908,146.471
0.128,10.941,3.145,3.145,193.468,175.895,146.477
0.129,10.960,3.143,3.143,193.452,175.884,146.478
0.130,10.985,3.138,3.138,193.430,175.879,146.470
0.132,11.018,3.133,3.133,193.401,175.880,146.454
0.133,11.060,3.126,3.126,193.366,175.885,146.431
0.134,11.109,3.118,3.118,193.327,175.895,146.402
0.135,11.165,3.109,3.109,193.284,175.908,146.369
0.136,11.226,3.100,3.100,193.239,175.925,146.332
0.137,11.289,3.090,3.090,193.192,175.944,146.294
0.139,11.354,3.079,3.079,193.144,175.966,146.255
0.140,11.420,3.068,3.068,193.097,175.989,146.217
0.141,11.483,3.056,3.056,193.050,176.013,146.180
0.142,11.544,3.044,3.044,193.006,176.037,146.147
0.143,11.601,3.031,3.031,192.964,176.062,146.116
0.144,11.656,3.018,3.018,192.924,176.088,146.089
0.146,11.710,3.004,3.004,192.885,176.116,146.066
0.147,11.763,2.989,2.989,192.847,176.146,146.045
0.148,11.817,2.973,2.973,192.809,176.180,146.027
0.149,11.872,2.956,2.956,192.772,176.218,146.011
0.150,11.930,2.938,2.938,192.734,176.260,145.999
0.151,11.992,2.919,2.919,192.695,176.308,145.989
0.153,12.059,2.897,2.897,192.656,176.361,145.981
0.154,12.132,2.875,2.875,192.614,176.421,145.975
0.155,12.211,2.852,2.852,192.572,176.487,145.972
0.156,12.294,2.828,2.828,192.528,176.557,145.969
0.157,12.381,2.805,2.805,192.483,176.632,145.967
0.158,12.470,2.782,2.782,192.438,176.708,145.965
0.159,12.560,2.760,2.760,192.392,176.786,145.961
0.161,12.649,2.739,2.739,192.347,176.863,145.955
0.162,12.738,2.720,2.720,192.302,176.939,145.947
0.163,12.825,2.703,2.703,192.259,177.013,145.935
0.164,12.908,2.687,2.687,192.216,177.083,145.920
0.165,12.987,2.674,2.674,192.175,177.148,145.899
0.166,13.063,2.661,2.661,192.136,177.208,145.874
0.168,13.137,2.650,2.650,192.098,177.263,145.844
0.169,13.209,2.640,2.640,192.060,177.315,145.811
0.170,13.279,2.631,2.631,192.024,177.363,145.775
0.171,13.349,2.622,2.622,191.988,177.409,145.736
0.172,13.419,2.613,2.613,191.952,177.454,145.697
0.173,13.489,2.604,2.604,191.915,177.497,145.656
0.175,13.558,2.595,2.595,191.879,177.541,145.616
0.176,13.629,2.585,2.585,191.841,177.585,145.576
0.177,13.700,2.573,2.573,191.802,177.630,145.537
0.178,13.773,2.560,2.560,191.761,177.677,145.500
0.179,13.847,2.545,2.545,191.716,177.725,145.465
0.180,13.925,2.527,2.527,191.667,177.776,145.432
0.182,14.007,2.507,2.507,191.612,177.828,145.402
0.183,14.094,2.484,2.484,191.548,177.881,145.374
0.184,14.189,2.457,2.457,191.476,177.937,145.350
0.185,14.292,2.427,2.427,191.393,177.995,145.329
0.186,14.406,2.395,2.395,191.297,178.054,145.311
0.187,14.532,2.361,2.361,191.188,178.116,145.297
0.189,14.671,2.325,2.325,191.064,178.179,145.288
0.190,14.825,2.287,2.287,190.925,178.244,145.282
0.191,14.990,2.248,2.248,190.774,178.310,145.281
0.192,15.165,2.208,2.208,190.611,178.375,145.284
0.193,15.347,2.166,2.166,190.441,178.440,145.292
0.194,15.534,2.125,2.125,190.265,178.502,145.305
0.196,15.724,2.085,2.085,190.086,178.561,145.321
0.197,15.913,2.046,2.046,189.906,178.616,145.343
0.198,16.100,2.009,2.009,189.728,178.665,145.369
0.199,16.282,1.976,1.976,189.554,178.709,145.400
0.200,16.457,1.946,1.946,189.386,178.746,145.435
0.201,16.624,1.921,1.921,189.227,178.775,145.475
0.203,16.781,1.901,1.901,189.078,178.797,145.518
0.204,16.928,1.887,1.887,188.939,178.814,145.563
0.205,17.063,1.877,1.877,188.812,178.824,145.609
0.206,17.186,1.871,1.871,188.698,178.831,145.653
0.207,17.294,1.867,1.867,188.598,178.833,145.695
0.208,17.387,1.866,1.866,188.513,178.833,145.734
0.210,17.464,1.865,1.865,188.444,178.831,145.767
0.211,17.522,1.865,1.865,188.392,178.827,145.794
0.212,17.561,1.865,1.865,188.359,178.822,145.813
0.213,17.581,1.862,1.862,188.344,178.817,145.824
0.214,17.586,1.859,1.859,188.343,178.813,145.828
0.215,17.596,1.856,1.856,188.352,178.810,145.826
0.217,17.611,1.852,1.852,188.366,178.807,145.821
0.218,17.627,1.850,1.850,188.380,178.806,145.814
0.219,17.640,1.850,1.850,188.390,178.807,145.807
0.220,17.646,1.853,1.853,188.392,178.809,145.801
0.221,17.659,1.858,1.858,188.381,178.813,145.798
0.222,17.689,1.868,1.868,188.352,178.820,145.800
0.224,17.741,1.882,1.882,188.301,178.830,145.809
0.225,17.820,1.901,1.901,188.225,178.843,145.826
0.226,17.922,1.922,1.922,188.127,178.858,145.849
0.227,18.042,1.945,1.945,188.013,178.875,145.879
0.228,18.174,1.970,1.970,187.887,178.893,145.913
0.229,18.312,1.996,1.996,187.754,178.913,145.951
0.231,18.453,2.021,2.021,187.621,178.932,145.990
0.232,18.590,2.046,2.046,187.492,178.951,146.031
0.233,18.718,2.069,2.069,187.372,178.970,146.071
0.234,18.831,2.090,2.090,187.266,178.987,146.109
0.235,18.926,2.109,2.109,187.179,179.001,146.144
0.236,18.997,2.128,2.128,187.117,179.014,146.175
0.237,19.048,2.146,2.146,187.075,179.024,146.203
0.239,19.086,2.163,2.163,187.049,179.032,146.229
0.240,19.116,2.181,2.181,187.034,179.038,146.254
0.241,19.144,2.200,2.200,187.026,179.043,146.281
0.242,19.174,2.220,2.220,187.019,179.048,146.309
0.243,19.208,2.241,2.241,187.008,179.051,146.342
0.244,19.250,2.265,2.265,186.989,179.055,146.379
0.246,19.304,2.290,2.290,186.957,179.059,146.422
0.247,19.376,2.318,2.318,186.907,179.063,146.473
0.248,19.470,2.349,2.349,186.835,179.069,146.533
0.249,19.584,2.383,2.383,186.742,179.075,146.600
0.250,19.714,2.420,2.420,186.635,179.081,146.673
0.251,19.854,2.461,2.461,186.517,179.088,146.748
0.253,19.999,2.505,2.505,186.394,179.096,146.825
0.254,20.143,2.552,2.552,186.271,179.102,146.899
0.255,20.281,2.602,2.602,186.152,179.109,146.970
0.256,20.407,2.653,2.653,186.044,179.114,147.034
0.257,20.516,2.702,2.702,185.950,179.118,147.089
0.258,20.602,2.748,2.748,185.877,179.122,147.134
0.260,20.661,2.790,2.790,185.827,179.123,147.166
0.261,20.694,2.826,2.826,185.801,179.123,147.185
0.262,20.705,2.854,2.854,185.794,179.122,147.194
0.263,20.711,2.872,2.872,185.799,179.121,147.194
0.264,20.726,2.881,2.881,185.813,179.118,147.188
0.265,20.746,2.883,2.883,185.830,179.116,147.178
0.267,20.766,2.881,2.881,185.846,179.114,147.166
0.268,20.782,2.878,2.878,185.855,179.113,147.154
0.269,20.792,2.875,2.875,185.853,179.113,147.144
0.270,20.812,2.877,2.877,185.834,179.114,147.138
0.271,20.851,2.884,2.884,185.795,179.117,147.138
0.272,20.913,2.901,2.901,185.734,179.121,147.144
0.274,20.991,2.929,2.929,185.657,179.127,147.156
0.275,21.083,2.967,2.967,185.566,179.134,147.172
0.276,21.184,3.013,3.013,185.468,179.142,147.190
0.277,21.289,3.064,3.064,185.365,179.151,147.210
0.278,21.394,3.117,3.117,185.262,179.160,147.230
0.279,21.496,3.171,3.171,185.163,179.170,147.249
0.281,21.588,3.222,3.222,185.072,179.179,147.266
0.282,21.668,3.268,3.268,184.994,179.188,147.280
0.283,21.730,3.306,3.306,184.933,179.197,147.288
0.284,21.775,3.334,3.334,184.889,179.205,147.292
0.285,21.804,3.353,3.353,184.861,179.211,147.292
0.286,21.821,3.364,3.364,184.844,179.216,147.290
0.288,21.829,3.368,3.368,184.838,179.219,147.287
0.289,21.832,3.366,3.366,184.838,179.219,147.284
0.290,21.837,3.359,3.359,184.843,179.217,147.283
0.291,21.846,3.348,3.348,184.849,179.211,147.284
0.292,21.858,3.335,3.335,184.854,179.202,147.290
0.293,21.875,3.320,3.320,184.855,179.189,147.301
0.295,21.900,3.305,3.305,184.850,179.172,147.319
0.296,21.936,3.289,3.289,184.837,179.150,147.344
0.297,21.979,3.274,3.274,184.817,179.125,147.372
0.298,22.028,3.260,3.260,184.791,179.097,147.403
0.299,22.082,3.247,3.247,184.759,179.067,147.434
0.300,22.137,3.237,3.237,184.723,179.035,147.462
0.302,22.193,3.229,3.229,184.683,179.003,147.485
0.303,22.249,3.225,3.225,184.641,178.970,147.501
0.304,22.304,3.224,3.224,184.597,178.939,147.508
0.305,22.358,3.227,3.227,184.552,178.909,147.503
0.306,22.414,3.233,3.233,184.507,178.881,147.484
0.307,22.475,3.241,3.241,184.463,178.856,147.449
0.308,22.545,3.251,3.251,184.419,178.832,147.400
0.310,22.624,3.261,3.261,184.375,178.810,147.339
0.311,22.712,3.271,3.271,184.329,178.789,147.266
0.312,22.810,3.281,3.281,184.282,178.769,147.184
0.313,22.915,3.289,3.289,184.233,178.748,147.093
0.314,23.028,3.296,3.296,184.181,178.726,146.995
0.315,23.147,3.301,3.301,184.126,178.703,146.891
0.317,23.273,3.306,3.306,184.068,178.678,146.783
0.318,23.403,3.312,3.312,184.005,178.650,146.673
0.319,23.537,3.320,3.320,183.937,178.620,146.560
0.320,23.676,3.330,3.330,183.864,178.588,146.447
0.321,23.819,3.343,3.343,183.785,178.556,146.333
0.322,23.965,3.361,3.361,183.699,178.526,146.218
0.324,24.116,3.384,3.384,183.606,178.498,146.102
0.325,24.272,3.412,3.412,183.504,178.474,145.987
0.326,24.433,3.444,3.444,183.394,178.455,145.872
0.327,24.599,3.479,3.479,183.274,178.443,145.757
0.328,24.771,3.516,3.516,183.144,178.440,145.644
0.329,24.952,3.552,3.552,183.003,178.445,145.531
0.331,25.141,3.588,3.588,182.851,178.461,145.420
0.332,25.338,3.621,3.621,182.688,178.486,145.312
0.333,25.542,3.651,3.651,182.516,178.519,145.208
0.334,25.753,3.676,3.676,182.334,178.557,145.109
0.335,25.969,3.695,3.695,182.144,178.600,145.016
0.336,26.189,3.711,3.711,181.946,178.646,144.930
0.338,26.412,3.724,3.724,181.742,178.692,144.852
0.339,26.638,3.735,3.735,181.531,178.738,144.785
0.340,26.865,3.744,3.744,181.316,178.782,144.728
0.341,27.093,3.752,3.752,181.096,178.822,144.683
0.342,27.322,3.761,3.761,180.873,178.858,144.650
0.343,27.548,3.771,3.771,180.650,178.890,144.627
0.345,27.768,3.783,3.783,180.432,178.922,144.611
0.346,27.980,3.797,3.797,180.224,178.957,144.596
0.347,28.180,3.813,3.813,180.029,178.996,144.580
0.348,28.365,3.831,3.831,179.852,179.044,144.559
0.349,28.533,3.852,3.852,179.697,179.102,144.530
0.350,28.686,3.875,3.875,179.568,179.173,144.488
0.352,28.829,3.901,3.901,179.470,179.260,144.429
0.353,28.974,3.930,3.930,179.408,179.365,144.351
0.354,29.138,3.961,3.961,179.384,179.491,144.250
0.355,29.327,3.995,3.995,179.395,179.636,144.129
0.356,29.541,4.031,4.031,179.436,179.795,143.991
0.357,29.776,4.070,4.070,179.501,179.965,143.842
0.359,30.026,4.111,4.111,179.584,180.141,143.686
0.360,30.284,4.153,4.153,179.679,180.321,143.527
0.361,30.541,4.197,4.197,179.780,180.498,143.370
0.362,30.792,4.243,4.243,179.882,180.671,143.220
0.363,31.027,4.290,4.290,179.978,180.834,143.080
0.364,31.240,4.338,4.338,180.063,180.984,142.955
0.366,31.423,4.385,4.385,180.131,181.117,142.850
0.367,31.576,4.432,4.432,180.183,181.233,142.765
0.368,31.701,4.476,4.476,180.219,181.331,142.697
0.369,31.801,4.516,4.516,180.242,181.413,142.645
0.370,31.878,4.552,4.552,180.254,181.480,142.607
0.371,31.936,4.581,4.581,180.256,181.531,142.580
0.373,31.977,4.603,4.603,180.252,181.568,142.563
0.374,32.004,4.617,4.617,180.242,181.591,142.553
0.375,32.020,4.620,4.620,180.229,181.602,142.550
0.376,32.034,4.616,4.616,180.216,181.600,142.550
0.377,32.053,4.607,4.607,180.203,181.586,142.552
0.378,32.077,4.594,4.594,180.192,181.564,142.555
0.380,32.103,4.580,4.580,180.183,181.540,142.557
0.381,32.127,4.566,4.566,180.176,181.518,142.559
0.382,32.142,4.556,4.556,180.170,181.504,142.559
0.383,32.146,4.552,4.552,180.166,181.503,142.558
0.384,32.164,4.555,4.555,180.164,181.521,142.553
0.385,32.207,4.567,4.567,180.164,181.562,142.546
0.386,32.278,4.587,4.587,180.165,181.633,142.534
0.388,32.385,4.614,4.614,180.168,181.738,142.517
0.389,32.531,4.647,4.647,180.173,181.883,142.496
0.390,32.717,4.686,4.686,180.179,182.066,142.469
0.391,32.933,4.730,4.730,180.186,182.280,142.437
0.392,33.172,4.777,4.777,180.194,182.517,142.403
0.393,33.427,4.828,4.828,180.202,182.768,142.365
0.395,33.688,4.880,4.880,180.210,183.027,142.327
0.396,33.950,4.933,4.933,180.218,183.285,142.287
0.397,34.203,4.987,4.987,180.225,183.535,142.248
0.398,34.440,5.040,5.040,180.231,183.769,142.210
0.399,34.652,5.092,5.092,180.235,183.978,142.174
0.400,34.833,5.141,5.141,180.237,184.156,142.141
0.402,34.979,5.187,5.188,180.237,184.299,142.111
0.403,35.095,5.230,5.230,180.235,184.412,142.084
0.404,35.185,5.267,5.267,180.231,184.499,142.059
0.405,35.255,5.299,5.298,180.226,184.564,142.035
0.406,35.308,5.325,5.325,180.220,184.611,142.013
0.407,35.350,5.348,5.348,180.213,184.646,141.991
0.409,35.385,5.368,5.367,180.206,184.672,141.968
0.410,35.418,5.386,5.385,180.198,184.694,141.945
0.411,35.452,5.402,5.401,180.190,184.717,141.920
0.412,35.491,5.418,5.417,180.182,184.744,141.894
0.413,35.536,5.434,5.434,180.174,184.778,141.865
0.414,35.587,5.453,5.453,180.166,184.818,141.835
0.416,35.642,5.473,5.474,180.158,184.863,141.804
0.417,35.699,5.494,5.496,180.151,184.911,141.774
0.418,35.758,5.517,5.520,180.143,184.961,141.744
0.419,35.816,5.539,5.544,180.135,185.011,141.716
0.420,35.873,5.562,5.568,180.127,185.061,141.691
0.421,35.926,5.583,5.591,180.119,185.109,141.669
0.423,35.975,5.603,5.612,180.111,185.154,141.651
0.424,36.017,5.620,5.632,180.102,185.193,141.638
0.425,36.054,5.635,5.648,180.093,185.228,141.631
0.426,36.083,5.647,5.662,180.084,185.256,141.627
0.427,36.107,5.655,5.672,180.076,185.278,141.628
0.428,36.124,5.661,5.680,180.069,185.294,141.631
0.430,36.136,5.663,5.683,180.065,185.303,141.637
0.431,36.143,5.662,5.683,180.063,185.306,141.643
0.432,36.151,5.658,5.679,180.064,185.302,141.650
0.433,36.165,5.650,5.672,180.068,185.291,141.656
0.434,36.185,5.639,5.660,180.077,185.273,141.661
0.435,36.214,5.625,5.644,180.091,185.248,141.664
0.437,36.250,5.609,5.625,180.109,185.217,141.664
0.438,36.290,5.592,5.606,180.130,185.183,141.662
0.439,36.328,5.577,5.587,180.151,185.152,141.660
0.440,36.359,5.563,5.571,180.169,185.126,141.657
0.441,36.378,5.554,5.559,180.181,185.111,141.657
0.442,36.383,5.550,5.552,180.186,185.112,141.659
0.444,36.405,5.553,5.554,180.179,185.132,141.664
0.445,36.455,5.564,5.564,180.159,185.177,141.674
0.446,36.538,5.585,5.585,180.123,185.249,141.691
0.447,36.659,5.612,5.614,180.068,185.355,141.714
0.448,36.822,5.645,5.651,179.992,185.497,141.745
0.449,37.021,5.680,5.692,179.899,185.668,141.782
0.451,37.247,5.716,5.738,179.793,185.863,141.823
0.452,37.491,5.750,5.786,179.678,186.074,141.868
0.453,37.745,5.781,5.835,179.558,186.293,141.914
0.454,38.000,5.807,5.882,179.437,186.513,141.959
0.455,38.248,5.825,5.927,179.319,186.727,142.002
0.456,38.480,5.835,5.969,179.209,186.928,142.041
0.458,38.688,5.839,6.007,179.111,187.108,142.074
0.459,38.862,5.840,6.039,179.029,187.259,142.099
0.460,38.997,5.838,6.067,178.966,187.377,142.116
0.461,39.092,5.836,6.089,178.922,187.462,142.124
0.462,39.154,5.835,6.105,178.894,187.517,142.126
0.463,39.187,5.838,6.113,178.880,187.546,142.124
0.464,39.197,5.846,6.115,178.877,187.554,142.118
0.466,39.211,5.860,6.109,178.882,187.543,142.111
0.467,39.240,5.880,6.096,178.894,187.517,142.105
0.468,39.280,5.904,6.080,178.910,187.481,142.101
0.469,39.327,5.929,6.062,178.927,187.437,142.100
0.470,39.378,5.955,6.044,178.943,187.389,142.105
0.471,39.429,5.978,6.028,178.956,187.341,142.117
0.473,39.476,5.997,6.017,178.963,187.297,142.133
0.474,39.517,6.010,6.012,178.964,187.260,142.150
0.475,39.549,6.015,6.016,178.958,187.233,142.165
