"T","Distance","Radius","FreeRadius","X","Y","Z"
0.000,0.000,1.426,1.426,-86.539,-58.907,0.749
0.002,0.164,1.393,1.393,-86.543,-59.069,0.774
0.004,0.326,1.363,1.363,-86.546,-59.228,0.802
0.005,0.483,1.340,1.340,-86.546,-59.383,0.834
0.007,0.635,1.326,1.326,-86.543,-59.529,0.873
0.009,0.779,1.326,1.326,-86.534,-59.665,0.921
0.011,0.917,1.343,1.343,-86.518,-59.788,0.981
0.013,1.049,1.376,1.376,-86.494,-59.896,1.054
0.014,1.179,1.419,1.419,-86.460,-59.985,1.142
0.016,1.314,1.468,1.468,-86.415,-60.053,1.249
0.018,1.460,1.515,1.515,-86.359,-60.099,1.376
0.020,1.627,1.556,1.556,-86.288,-60.118,1.526
0.022,1.816,1.586,1.586,-86.206,-60.113,1.697
0.024,2.026,1.606,1.606,-86.114,-60.087,1.883
0.025,2.252,1.622,1.622,-86.015,-60.043,2.082
0.027,2.489,1.637,1.637,-85.913,-59.987,2.289
0.029,2.731,1.655,1.655,-85.810,-59.921,2.498
0.031,2.973,1.682,1.682,-85.710,-59.850,2.705
0.033,3.207,1.719,1.719,-85.615,-59.777,2.906
0.034,3.428,1.762,1.762,-85.528,-59.707,3.097
0.036,3.630,1.809,1.809,-85.452,-59.643,3.273
0.038,3.806,1.857,1.857,-85.390,-59.589,3.428
0.040,3.953,1.902,1.902,-85.344,-59.547,3.562
0.042,4.074,1.940,1.940,-85.313,-59.516,3.674
0.043,4.172,1.973,1.973,-85.293,-59.495,3.769
0.045,4.252,1.999,1.999,-85.284,-59.483,3.847
0.047,4.316,2.022,2.022,-85.284,-59.476,3.911
0.049,4.369,2.042,2.042,-85.289,-59.474,3.963
0.051,4.414,2.060,2.060,-85.299,-59.476,4.007
0.053,4.452,2.077,2.077,-85.312,-59.479,4.043
0.054,4.487,2.094,2.094,-85.324,-59.481,4.075
0.056,4.518,2.110,2.110,-85.336,-59.482,4.105
0.058,4.549,2.125,2.125,-85.343,-59.479,4.134
0.060,4.579,2.140,2.140,-85.347,-59.473,4.163
0.062,4.610,2.154,2.154,-85.348,-59.464,4.193
0.063,4.642,2.168,2.168,-85.346,-59.452,4.222
0.065,4.674,2.182,2.182,-85.342,-59.438,4.251
0.067,4.707,2.195,2.195,-85.337,-59.423,4.280
0.069,4.740,2.208,2.208,-85.330,-59.406,4.308
0.071,4.772,2.222,2.222,-85.322,-59.389,4.334
0.072,4.804,2.235,2.235,-85.314,-59.372,4.359
0.074,4.834,2.248,2.248,-85.307,-59.356,4.383
0.076,4.862,2.261,2.261,-85.300,-59.340,4.405
0.078,4.887,2.273,2.273,-85.295,-59.325,4.425
0.080,4.910,2.284,2.284,-85.291,-59.312,4.443
0.082,4.929,2.293,2.293,-85.287,-59.300,4.459
0.083,4.946,2.300,2.300,-85.285,-59.290,4.472
0.085,4.960,2.306,2.306,-85.283,-59.280,4.482
0.087,4.971,2.310,2.310,-85.283,-59.273,4.490
0.089,4.979,2.312,2.312,-85.282,-59.266,4.494
0.091,4.985,2.312,2.312,-85.283,-59.261,4.496
0.092,4.989,2.309,2.309,-85.284,-59.257,4.494
0.094,4.995,2.306,2.306,-85.286,-59.255,4.488
0.096,5.004,2.302,2.302,-85.288,-59.254,4.480
0.098,5.015,2.298,2.298,-85.290,-59.254,4.469
0.100,5.026,2.296,2.296,-85.293,-59.256,4.458
0.101,5.035,2.296,2.296,-85.295,-59.257,4.450
0.103,5.041,2.299,2.299,-85.298,-59.260,4.445
0.105,5.045,2.304,2.304,-85.300,-59.262,4.446
0.107,5.054,2.310,2.310,-85.302,-59.264,4.454
0.109,5.072,2.316,2.316,-85.304,-59.265,4.473
0.111,5.102,2.321,2.321,-85.305,-59.266,4.502
0.112,5.145,2.325,2.325,-85.305,-59.266,4.546
0.114,5.204,2.328,2.328,-85.305,-59.264,4.604
0.116,5.277,2.332,2.332,-85.303,-59.261,4.678
0.118,5.364,2.340,2.340,-85.300,-59.255,4.764
0.120,5.460,2.353,2.353,-85.293,-59.246,4.860
0.121,5.565,2.374,2.374,-85.283,-59.235,4.963
0.123,5.676,2.402,2.402,-85.267,-59.219,5.072
0.125,5.790,2.436,2.436,-85.247,-59.198,5.183
0.127,5.907,2.471,2.471,-85.219,-59.173,5.293
0.129,6.025,2.505,2.505,-85.185,-59.143,5.401
0.130,6.142,2.533,2.533,-85.142,-59.106,5.504
0.132,6.259,2.552,2.552,-85.090,-59.062,5.599
0.134,6.376,2.562,2.562,-85.028,-59.012,5.685
0.136,6.494,2.565,2.565,-84.958,-58.956,5.761
0.138,6.614,2.564,2.564,-84.879,-58.894,5.829
0.139,6.737,2.561,2.561,-84.794,-58.828,5.888
0.141,6.864,2.558,2.558,-84.702,-58.758,5.939
0.143,6.993,2.559,2.559,-84.605,-58.684,5.982
0.145,7.124,2.562,2.562,-84.504,-58.609,6.019
0.147,7.258,2.567,2.567,-84.399,-58.532,6.049
0.149,7.392,2.575,2.575,-84.292,-58.454,6.073
0.150,7.527,2.583,2.583,-84.184,-58.376,6.092
0.152,7.662,2.593,2.593,-84.074,-58.300,6.106
0.154,7.795,2.603,2.603,-83.965,-58.224,6.116
0.156,7.927,2.615,2.615,-83.856,-58.149,6.123
0.158,8.058,2.628,2.628,-83.749,-58.075,6.127
0.159,8.186,2.643,2.643,-83.643,-58.002,6.129
0.161,8.312,2.660,2.660,-83.541,-57.929,6.131
0.163,8.435,2.680,2.680,-83.441,-57.857,6.134
0.165,8.554,2.703,2.703,-83.346,-57.785,6.137
0.167,8.669,2.726,2.726,-83.256,-57.713,6.142
0.168,8.781,2.751,2.751,-83.170,-57.642,6.150
0.170,8.888,2.776,2.776,-83.091,-57.571,6.162
0.172,8.991,2.801,2.801,-83.018,-57.499,6.178
0.174,9.091,2.825,2.825,-82.951,-57.427,6.196
0.176,9.189,2.847,2.847,-82.889,-57.354,6.216
0.178,9.286,2.867,2.867,-82.832,-57.279,6.235
0.179,9.381,2.884,2.884,-82.780,-57.201,6.254
0.181,9.477,2.897,2.897,-82.730,-57.121,6.270
0.183,9.573,2.907,2.907,-82.684,-57.037,6.282
0.185,9.671,2.913,2.913,-82.641,-56.949,6.289
0.187,9.773,2.915,2.915,-82.599,-56.857,6.289
0.188,9.878,2.915,2.915,-82.559,-56.760,6.282
0.190,9.989,2.913,2.913,-82.520,-56.657,6.266
0.192,10.105,2.911,2.911,-82.482,-56.551,6.242
0.194,10.223,2.908,2.908,-82.442,-56.443,6.213
0.196,10.343,2.906,2.906,-82.400,-56.336,6.181
0.197,10.461,2.906,2.906,-82.356,-56.232,6.147
0.199,10.575,2.911,2.911,-82.309,-56.133,6.113
0.201,10.685,2.921,2.921,-82.256,-56.042,6.082
0.203,10.788,2.937,2.937,-82.199,-55.961,6.057
0.205,10.883,2.960,2.960,-82.135,-55.892,6.037
0.207,10.974,2.989,2.989,-82.064,-55.838,6.027
0.208,11.062,3.023,3.023,-81.984,-55.800,6.028
0.210,11.152,3.061,3.061,-81.897,-55.778,6.040
0.212,11.250,3.102,3.102,-81.802,-55.769,6.062
0.214,11.357,3.145,3.145,-81.701,-55.769,6.094
0.216,11.471,3.188,3.188,-81.594,-55.774,6.135
0.217,11.592,3.230,3.230,-81.483,-55.780,6.183
0.219,11.718,3.267,3.267,-81.369,-55.783,6.237
0.221,11.849,3.299,3.299,-81.252,-55.780,6.296
0.223,11.984,3.322,3.322,-81.134,-55.767,6.359
0.225,12.123,3.338,3.338,-81.015,-55.739,6.425
0.226,12.267,3.349,3.349,-80.897,-55.694,6.494
0.228,12.418,3.359,3.359,-80.780,-55.628,6.563
0.230,12.577,3.372,3.372,-80.665,-55.543,6.633
0.232,12.743,3.392,3.392,-80.551,-55.444,6.703
0.234,12.915,3.422,3.422,-80.441,-55.333,6.774
0.236,13.090,3.461,3.461,-80.333,-55.214,6.844
0.237,13.267,3.508,3.508,-80.228,-55.090,6.915
0.239,13.443,3.558,3.558,-80.127,-54.964,6.984
0.241,13.616,3.611,3.611,-80.029,-54.840,7.054
0.243,13.782,3.663,3.663,-79.935,-54.720,7.122
0.245,13.940,3.713,3.713,-79.846,-54.609,7.189
0.246,14.086,3.760,3.760,-79.762,-54.510,7.255
0.248,14.220,3.805,3.805,-79.683,-54.422,7.319
0.250,14.343,3.847,3.847,-79.609,-54.346,7.381
0.252,14.456,3.886,3.886,-79.540,-54.279,7.441
0.254,14.559,3.923,3.923,-79.478,-54.220,7.497
0.255,14.653,3.957,3.957,-79.421,-54.168,7.551
0.257,14.737,3.986,3.986,-79.371,-54.121,7.601
0.259,14.813,4.007,4.007,-79.328,-54.079,7.647
0.261,14.881,4.019,4.019,-79.292,-54.040,7.689
0.263,14.941,4.021,4.021,-79.263,-54.002,7.727
0.264,14.995,4.011,4.011,-79.242,-53.965,7.759
0.266,15.044,3.993,3.993,-79.228,-53.927,7.786
0.268,15.088,3.972,3.972,-79.221,-53.890,7.808
0.270,15.128,3.950,3.950,-79.219,-53.853,7.825
0.272,15.166,3.933,3.933,-79.222,-53.817,7.837
0.274,15.200,3.924,3.924,-79.228,-53.784,7.844
0.275,15.232,3.925,3.925,-79.237,-53.754,7.846
0.277,15.261,3.934,3.934,-79.248,-53.727,7.844
0.279,15.288,3.949,3.949,-79.259,-53.704,7.838
0.281,15.311,3.967,3.967,-79.270,-53.686,7.828
0.283,15.332,3.986,3.986,-79.279,-53.673,7.813
0.284,15.353,4.005,4.005,-79.286,-53.667,7.795
0.286,15.373,4.021,4.021,-79.289,-53.664,7.775
0.288,15.394,4.036,4.036,-79.287,-53.660,7.755
0.290,15.415,4.046,4.046,-79.278,-53.652,7.737
0.292,15.441,4.052,4.052,-79.262,-53.636,7.724
0.293,15.480,4.052,4.052,-79.236,-53.608,7.719
0.295,15.537,4.046,4.046,-79.200,-53.564,7.723
0.297,15.619,4.033,4.033,-79.152,-53.500,7.738
0.299,15.730,4.015,4.015,-79.091,-53.412,7.768
0.301,15.875,3.991,3.991,-79.016,-53.296,7.814
0.303,16.060,3.961,3.961,-78.924,-53.149,7.879
0.304,16.284,3.926,3.926,-78.817,-52.972,7.962
0.306,16.538,3.888,3.888,-78.697,-52.770,8.060
0.308,16.813,3.852,3.852,-78.566,-52.553,8.167
0.310,17.102,3.823,3.823,-78.427,-52.326,8.280
0.312,17.394,3.805,3.805,-78.283,-52.099,8.394
0.313,17.682,3.802,3.802,-78.137,-51.877,8.505
0.315,17.956,3.817,3.817,-77.990,-51.670,8.609
0.317,18.209,3.845,3.845,-77.847,-51.483,8.700
0.319,18.431,3.881,3.881,-77.709,-51.326,8.775
0.321,18.617,3.921,3.921,-77.580,-51.204,8.830
0.322,18.763,3.958,3.958,-77.461,-51.125,8.861
0.324,18.877,3.989,3.989,-77.356,-51.082,8.873
0.326,18.966,4.010,4.010,-77.269,-51.067,8.870
0.328,19.034,4.023,4.023,-77.202,-51.074,8.859
0.330,19.083,4.027,4.027,-77.158,-51.093,8.845
0.332,19.114,4.022,4.022,-77.142,-51.117,8.834
0.333,19.139,4.010,4.010,-77.156,-51.138,8.832
0.335,19.190,3.989,3.989,-77.204,-51.148,8.844
0.337,19.280,3.957,3.957,-77.288,-51.139,8.877
0.339,19.422,3.911,3.911,-77.413,-51.102,8.935
0.341,19.625,3.849,3.849,-77.580,-51.031,9.024
0.342,19.888,3.766,3.766,-77.787,-50.923,9.145
0.344,20.201,3.659,3.659,-78.028,-50.785,9.290
0.346,20.555,3.532,3.532,-78.293,-50.619,9.455
0.348,20.937,3.389,3.389,-78.575,-50.431,9.632
0.350,21.339,3.240,3.240,-78.867,-50.226,9.816
0.351,21.748,3.091,3.091,-79.160,-50.008,10.001
0.353,22.155,2.950,2.950,-79.447,-49.782,10.180
0.355,22.549,2.824,2.824,-79.720,-49.553,10.348
0.357,22.919,2.714,2.714,-79.971,-49.326,10.499
0.359,23.256,2.622,2.622,-80.192,-49.106,10.626
0.361,23.554,2.548,2.548,-80.378,-48.895,10.725
0.362,23.816,2.493,2.493,-80.531,-48.696,10.799
0.364,24.046,2.456,2.456,-80.655,-48.510,10.851
0.366,24.247,2.438,2.438,-80.754,-48.337,10.884
0.368,24.424,2.434,2.434,-80.830,-48.179,10.900
0.370,24.578,2.440,2.440,-80.888,-48.036,10.904
0.371,24.712,2.452,2.452,-80.931,-47.910,10.897
0.373,24.826,2.466,2.466,-80.963,-47.800,10.884
0.375,24.922,2.478,2.478,-80.987,-47.709,10.867
0.377,24.999,2.487,2.487,-81.007,-47.637,10.849
0.379,25.057,2.494,2.494,-81.026,-47.585,10.834
0.380,25.098,2.498,2.498,-81.047,-47.551,10.822
0.382,25.130,2.502,2.502,-81.069,-47.532,10.811
0.384,25.159,2.506,2.506,-81.095,-47.525,10.800
0.386,25.191,2.510,2.510,-81.126,-47.527,10.789
0.388,25.230,2.513,2.513,-81.161,-47.535,10.775
0.389,25.277,2.513,2.513,-81.204,-47.546,10.759
0.391,25.333,2.511,2.511,-81.254,-47.558,10.738
0.393,25.397,2.503,2.503,-81.313,-47.566,10.713
0.395,25.473,2.490,2.490,-81.381,-47.568,10.680
0.397,25.562,2.471,2.471,-81.460,-47.561,10.640
0.399,25.665,2.450,2.450,-81.550,-47.543,10.592
0.400,25.780,2.430,2.430,-81.648,-47.517,10.538
0.402,25.903,2.412,2.412,-81.751,-47.484,10.480
0.404,26.031,2.400,2.400,-81.857,-47.445,10.418
0.406,26.161,2.395,2.395,-81.962,-47.403,10.356
0.408,26.289,2.397,2.397,-82.065,-47.360,10.294
0.409,26.411,2.404,2.404,-82.163,-47.318,10.234
0.411,26.523,2.414,2.414,-82.252,-47.278,10.178
0.413,26.623,2.426,2.426,-82.330,-47.242,10.128
0.415,26.705,2.437,2.437,-82.395,-47.212,10.086
0.417,26.768,2.448,2.448,-82.443,-47.191,10.053
0.418,26.813,2.456,2.456,-82.477,-47.176,10.028
0.420,26.842,2.463,2.463,-82.500,-47.167,10.011
0.422,26.859,2.467,2.467,-82.513,-47.162,10.002
0.424,26.866,2.467,2.467,-82.519,-47.161,10.000
0.426,26.870,2.464,2.464,-82.522,-47.161,10.004
0.428,26.879,2.458,2.458,-82.522,-47.161,10.013
0.429,26.893,2.449,2.449,-82.524,-47.160,10.027
0.431,26.912,2.437,2.437,-82.530,-47.156,10.044
0.433,26.937,2.422,2.422,-82.541,-47.148,10.065
0.435,26.971,2.405,2.405,-82.562,-47.135,10.089
0.437,27.016,2.386,2.386,-82.593,-47.116,10.115
0.438,27.071,2.364,2.364,-82.633,-47.091,10.144
0.440,27.137,2.340,2.340,-82.681,-47.062,10.178
0.442,27.214,2.313,2.313,-82.738,-47.028,10.217
0.444,27.301,2.283,2.283,-82.802,-46.991,10.262
0.446,27.398,2.250,2.250,-82.873,-46.950,10.314
0.447,27.504,2.214,2.214,-82.950,-46.906,10.374
0.449,27.621,2.175,2.175,-83.033,-46.861,10.442
0.451,27.747,2.133,2.133,-83.121,-46.813,10.520
0.453,27.883,2.089,2.089,-83.213,-46.764,10.608
0.455,28.029,2.044,2.044,-83.308,-46.715,10.706
0.457,28.183,1.998,1.998,-83.406,-46.665,10.813
0.458,28.344,1.954,1.954,-83.506,-46.613,10.927
0.460,28.509,1.917,1.917,-83.608,-46.558,11.046
0.462,28.677,1.890,1.890,-83.710,-46.502,11.166
0.464,28.845,1.876,1.876,-83.811,-46.442,11.287
0.466,29.013,1.880,1.880,-83.912,-46.379,11.406
0.467,29.178,1.900,1.900,-84.010,-46.312,11.520
0.469,29.339,1.931,1.931,-84.105,-46.240,11.628
0.471,29.494,1.966,1.966,-84.197,-46.164,11.727
0.473,29.643,2.001,2.001,-84.285,-46.082,11.815
0.475,29.785,2.030,2.030,-84.368,-45.996,11.893
0.476,29.922,2.049,2.049,-84.446,-45.907,11.961
0.478,30.052,2.058,2.058,-84.519,-45.817,12.020
0.480,30.176,2.060,2.060,-84.587,-45.727,12.073
0.482,30.293,2.060,2.060,-84.649,-45.640,12.120
0.484,30.403,2.059,2.059,-84.707,-45.557,12.163
0.486,30.505,2.062,2.062,-84.759,-45.480,12.203
0.487,30.597,2.069,2.069,-84.805,-45.409,12.241
0.489,30.680,2.080,2.080,-84.846,-45.348,12.279
0.491,30.752,2.093,2.093,-84.881,-45.298,12.319
0.493,30.816,2.108,2.108,-84.910,-45.259,12.360
0.495,30.874,2.124,2.124,-84.935,-45.229,12.403
0.496,30.929,2.140,2.140,-84.955,-45.204,12.448
0.498,30.983,2.155,2.155,-84.973,-45.183,12.494
0.500,31.038,2.168,2.168,-84.988,-45.162,12.542
0.502,31.093,2.180,2.180,-85.001,-45.139,12.591
0.504,31.152,2.189,2.189,-85.014,-45.110,12.641
0.505,31.216,2.196,2.196,-85.027,-45.073,12.691
0.507,31.288,2.200,2.200,-85.041,-45.026,12.743
0.509,31.370,2.203,2.203,-85.057,-44.964,12.794
0.511,31.465,2.206,2.206,-85.076,-44.887,12.846
0.513,31.572,2.211,2.211,-85.097,-44.795,12.898
0.514,31.691,2.221,2.221,-85.121,-44.691,12.950
0.516,31.819,2.236,2.236,-85.148,-44.577,13.001
0.518,31.952,2.257,2.257,-85.178,-44.458,13.053
0.520,32.089,2.282,2.282,-85.210,-44.335,13.103
0.522,32.227,2.311,2.311,-85.244,-44.211,13.153
0.524,32.363,2.343,2.343,-85.282,-44.090,13.202
0.525,32.494,2.376,2.376,-85.321,-43.973,13.250
0.527,32.620,2.409,2.409,-85.363,-43.865,13.297
0.529,32.736,2.442,2.442,-85.407,-43.767,13.342
0.531,32.842,2.473,2.473,-85.452,-43.682,13.386
0.533,32.940,2.500,2.500,-85.500,-43.607,13.427
0.534,33.029,2.524,2.524,-85.548,-43.542,13.466
0.536,33.111,2.543,2.543,-85.596,-43.487,13.500
0.538,33.185,2.556,2.556,-85.644,-43.438,13.531
0.540,33.252,2.562,2.562,-85.690,-43.397,13.556
0.542,33.313,2.561,2.561,-85.735,-43.360,13.575
0.543,33.368,2.552,2.552,-85.778,-43.329,13.588
0.545,33.417,2.534,2.534,-85.818,-43.300,13.593
0.547,33.463,2.508,2.508,-85.854,-43.273,13.591
0.549,33.505,2.476,2.476,-85.887,-43.248,13.581
0.551,33.545,2.443,2.443,-85.916,-43.223,13.567
0.553,33.583,2.413,2.413,-85.942,-43.199,13.555
0.554,33.618,2.390,2.390,-85.967,-43.176,13.549
0.556,33.651,2.378,2.378,-85.990,-43.153,13.553
0.558,33.690,2.378,2.378,-86.013,-43.130,13.575
0.560,33.744,2.384,2.384,-86.037,-43.106,13.617
0.562,33.820,2.393,2.393,-86.061,-43.083,13.685
0.563,33.926,2.397,2.397,-86.088,-43.059,13.785
0.565,34.067,2.392,2.392,-86.117,-43.035,13.921
0.567,34.249,2.372,2.372,-86.150,-43.010,14.098
0.569,34.469,2.343,2.343,-86.187,-42.985,14.314
0.571,34.721,2.312,2.312,-86.229,-42.959,14.561
0.572,34.997,2.288,2.288,-86.277,-42.935,14.832
0.574,35.290,2.277,2.277,-86.332,-42.911,15.118
0.576,35.592,2.290,2.290,-86.395,-42.889,15.412
0.578,35.896,2.329,2.329,-86.467,-42.869,15.707
0.580,36.194,2.388,2.388,-86.549,-42.851,15.994
0.582,36.481,2.459,2.459,-86.641,-42.837,16.265
0.583,36.750,2.533,2.533,-86.745,-42.827,16.512
0.585,36.996,2.603,2.603,-86.862,-42.821,16.729
0.587,37.218,2.661,2.661,-86.991,-42.819,16.909
0.589,37.420,2.704,2.704,-87.131,-42.822,17.055
0.591,37.609,2.737,2.737,-87.279,-42.829,17.172
0.592,37.788,2.760,2.760,-87.434,-42.840,17.263
0.594,37.961,2.778,2.778,-87.591,-42.855,17.332
0.596,38.129,2.793,2.793,-87.750,-42.873,17.383
0.598,38.292,2.807,2.807,-87.908,-42.895,17.419
0.600,38.450,2.822,2.822,-88.062,-42.919,17.445
0.601,38.602,2.840,2.840,-88.210,-42.946,17.465
0.603,38.746,2.860,2.860,-88.350,-42.975,17.482
0.605,38.880,2.886,2.886,-88.479,-43.007,17.499
0.607,39.006,2.917,2.917,-88.599,-43.040,17.519
0.609,39.126,2.954,2.954,-88.712,-43.072,17.541
0.611,39.241,2.995,2.995,-88.820,-43.103,17.565
0.612,39.354,3.039,3.039,-88.927,-43.131,17.591
0.614,39.468,3.083,3.083,-89.035,-43.154,17.619
0.616,39.584,3.127,3.127,-89.146,-43.170,17.648
0.618,39.705,3.169,3.169,-89.263,-43.180,17.678
0.620,39.835,3.209,3.209,-89.389,-43.180,17.710
0.621,39.976,3.248,3.248,-89.526,-43.171,17.743
0.623,40.132,3.286,3.286,-89.677,-43.149,17.777
0.625,40.304,3.325,3.325,-89.842,-43.115,17.812
0.627,40.490,3.365,3.365,-90.017,-43.068,17.847
0.629,40.685,3.406,3.406,-90.199,-43.007,17.883
0.630,40.887,3.447,3.447,-90.384,-42.934,17.919
0.632,41.093,3.485,3.485,-90.568,-42.847,17.954
0.634,41.301,3.520,3.520,-90.746,-42.746,17.990
0.636,41.508,3.549,3.549,-90.916,-42.632,18.024
0.638,41.713,3.570,3.570,-91.072,-42.503,18.057
0.639,41.915,3.584,3.584,-91.212,-42.361,18.089
0.641,42.114,3.589,3.589,-91.330,-42.205,18.119
0.643,42.311,3.586,3.586,-91.425,-42.034,18.147
0.645,42.508,3.574,3.574,-91.498,-41.852,18.172
0.647,42.708,3.553,3.553,-91.551,-41.661,18.194
0.649,42.910,3.523,3.523,-91.588,-41.463,18.211
0.650,43.112,3.486,3.486,-91.613,-41.263,18.223
0.652,43.314,3.444,3.444,-91.628,-41.062,18.228
0.654,43.513,3.400,3.400,-91.636,-40.863,18.225
0.656,43.707,3.355,3.355,-91.642,-40.669,18.215
0.658,43.893,3.312,3.312,-91.647,-40.484,18.195
0.659,44.071,3.271,3.271,-91.656,-40.310,18.165
0.661,44.237,3.233,3.233,-91.671,-40.149,18.124
0.663,44.395,3.198,3.198,-91.694,-40.001,18.072
0.665,44.548,3.166,3.166,-91.725,-39.864,18.011
0.667,44.701,3.137,3.137,-91.764,-39.734,17.941
0.668,44.856,3.112,3.112,-91.811,-39.608,17.864
0.670,45.017,3.093,3.093,-91.866,-39.481,17.781
0.672,45.185,3.081,3.081,-91.929,-39.352,17.694
0.674,45.363,3.080,3.080,-91.999,-39.216,17.604
0.676,45.553,3.090,3.090,-92.078,-39.070,17.512
0.678,45.756,3.115,3.115,-92.164,-38.911,17.419
0.679,45.976,3.154,3.154,-92.258,-38.735,17.327
0.681,46.212,3.207,3.207,-92.359,-38.541,17.237
0.683,46.463,3.273,3.273,-92.467,-38.333,17.150
0.685,46.721,3.350,3.350,-92.580,-38.115,17.067
0.687,46.984,3.438,3.438,-92.696,-37.893,16.990
0.688,47.244,3.535,3.535,-92.815,-37.672,16.920
0.690,47.498,3.635,3.635,-92.935,-37.457,16.858
0.692,47.741,3.731,3.731,-93.055,-37.253,16.806
0.694,47.967,3.816,3.816,-93.174,-37.064,16.764
0.696,48.173,3.883,3.883,-93.290,-36.897,16.734
0.697,48.353,3.926,3.926,-93.402,-36.757,16.717
0.699,48.507,3.942,3.942,-93.508,-36.647,16.714
0.701,48.637,3.937,3.937,-93.610,-36.566,16.726
0.703,48.753,3.920,3.920,-93.707,-36.506,16.750
0.705,48.862,3.896,3.896,-93.800,-36.462,16.786
0.707,48.970,3.874,3.874,-93.890,-36.427,16.832
0.708,49.080,3.861,3.861,-93.978,-36.393,16.888
0.710,49.194,3.857,3.857,-94.065,-36.353,16.952
0.712,49.316,3.861,3.861,-94.150,-36.302,17.023
0.714,49.451,3.870,3.870,-94.236,-36.231,17.100
0.716,49.604,3.881,3.881,-94.322,-36.135,17.181
0.717,49.781,3.893,3.893,-94.409,-36.006,17.265
0.719,49.987,3.904,3.904,-94.498,-35.842,17.352
0.721,50.217,3.919,3.919,-94.588,-35.649,17.440
0.723,50.465,3.942,3.942,-94.677,-35.434,17.527
0.725,50.726,3.977,3.977,-94.764,-35.204,17.613
0.726,50.992,4.029,4.029,-94.847,-34.965,17.695
0.728,51.256,4.102,4.102,-94.927,-34.726,17.773
0.730,51.511,4.193,4.193,-95.001,-34.493,17.846
0.732,51.751,4.294,4.294,-95.069,-34.272,17.911
0.734,51.968,4.398,4.398,-95.129,-34.072,17.968
0.736,52.154,4.496,4.496,-95.180,-33.899,18.016
0.737,52.304,4.580,4.580,-95.221,-33.759,18.053
0.739,52.421,4.642,4.642,-95.253,-33.650,18.081
0.741,52.511,4.686,4.686,-95.279,-33.568,18.104
0.743,52.580,4.716,4.716,-95.300,-33.506,18.124
0.745,52.635,4.734,4.734,-95.319,-33.459,18.145
0.746,52.683,4.746,4.746,-95.338,-33.422,18.171
0.748,52.734,4.756,4.756,-95.359,-33.389,18.203
0.750,52.793,4.766,4.766,-95.384,-33.356,18.246
0.752,52.868,4.780,4.780,-95.415,-33.317,18.302
0.754,52.965,4.799,4.799,-95.455,-33.267,18.375
0.755,53.089,4.825,4.825,-95.505,-33.200,18.467
0.757,53.242,4.861,4.861,-95.565,-33.116,18.579
0.759,53.418,4.908,4.908,-95.634,-33.016,18.706
0.761,53.610,4.965,4.965,-95.709,-32.907,18.845
