"T","Distance","Radius","FreeRadius","X","Y","Z"
0.000,0.000,1.178,1.178,219.753,194.199,196.930
0.001,0.190,1.225,1.225,219.750,194.083,196.780
0.002,0.378,1.272,1.272,219.747,193.967,196.631
0.004,0.564,1.316,1.316,219.744,193.853,196.485
0.005,0.747,1.357,1.357,219.740,193.740,196.341
0.006,0.924,1.393,1.393,219.735,193.629,196.202
0.007,1.096,1.424,1.424,219.729,193.522,196.068
0.008,1.261,1.448,1.448,219.721,193.417,195.941
0.010,1.418,1.464,1.464,219.711,193.317,195.821
0.011,1.566,1.471,1.471,219.700,193.221,195.709
0.012,1.703,1.470,1.470,219.687,193.130,195.607
0.013,1.829,1.461,1.461,219.671,193.045,195.515
0.014,1.944,1.447,1.447,219.651,192.965,195.434
0.015,2.050,1.429,1.429,219.627,192.890,195.365
0.017,2.148,1.410,1.410,219.597,192.817,195.307
0.018,2.242,1.390,1.390,219.558,192.745,195.260
0.019,2.335,1.371,1.371,219.509,192.674,195.225
0.020,2.431,1.356,1.356,219.450,192.602,195.202
0.021,2.536,1.344,1.344,219.377,192.528,195.190
0.023,2.652,1.337,1.337,219.290,192.450,195.190
0.024,2.785,1.332,1.332,219.187,192.367,195.201
0.025,2.937,1.329,1.329,219.067,192.278,195.225
0.026,3.109,1.327,1.327,218.928,192.183,195.260
0.027,3.299,1.325,1.325,218.774,192.082,195.306
0.029,3.501,1.322,1.322,218.609,191.977,195.359
0.030,3.711,1.316,1.316,218.438,191.870,195.417
0.031,3.923,1.308,1.308,218.265,191.764,195.479
0.032,4.133,1.296,1.296,218.094,191.659,195.543
0.033,4.336,1.283,1.283,217.930,191.559,195.605
0.034,4.526,1.268,1.268,217.777,191.464,195.665
0.036,4.698,1.254,1.254,217.639,191.377,195.720
0.037,4.847,1.241,1.241,217.521,191.299,195.767
0.038,4.968,1.229,1.229,217.426,191.233,195.805
0.039,5.061,1.221,1.221,217.356,191.179,195.833
0.040,5.129,1.217,1.217,217.308,191.135,195.853
0.042,5.177,1.217,1.217,217.277,191.101,195.866
0.043,5.208,1.222,1.222,217.260,191.075,195.874
0.044,5.228,1.229,1.229,217.255,191.057,195.878
0.045,5.240,1.238,1.238,217.257,191.045,195.880
0.046,5.249,1.249,1.249,217.263,191.038,195.882
0.048,5.257,1.259,1.259,217.269,191.035,195.884
0.049,5.263,1.269,1.269,217.273,191.035,195.889
0.050,5.273,1.276,1.276,217.270,191.036,195.898
0.051,5.292,1.281,1.281,217.259,191.038,195.913
0.052,5.319,1.282,1.282,217.238,191.041,195.932
0.054,5.355,1.281,1.281,217.211,191.043,195.954
0.055,5.396,1.278,1.278,217.179,191.045,195.980
0.056,5.441,1.273,1.273,217.143,191.048,196.007
0.057,5.489,1.268,1.268,217.104,191.050,196.034
0.058,5.536,1.263,1.263,217.065,191.051,196.061
0.059,5.582,1.259,1.259,217.026,191.052,196.086
0.061,5.625,1.256,1.256,216.990,191.053,196.108
0.062,5.662,1.254,1.254,216.957,191.053,196.127
0.063,5.693,1.254,1.254,216.930,191.051,196.141
0.064,5.716,1.254,1.254,216.909,191.049,196.150
0.065,5.735,1.255,1.255,216.892,191.047,196.156
0.067,5.750,1.255,1.255,216.877,191.044,196.160
0.068,5.764,1.254,1.253,216.864,191.041,196.163
0.069,5.778,1.251,1.251,216.851,191.038,196.167
0.070,5.794,1.245,1.245,216.836,191.035,196.174
0.071,5.815,1.237,1.237,216.818,191.034,196.183
0.073,5.841,1.227,1.227,216.796,191.033,196.198
0.074,5.876,1.214,1.214,216.767,191.034,196.219
0.075,5.922,1.200,1.201,216.732,191.037,196.247
0.076,5.980,1.186,1.187,216.688,191.041,196.284
0.077,6.048,1.173,1.173,216.634,191.044,196.327
0.078,6.124,1.161,1.161,216.572,191.046,196.371
0.080,6.207,1.151,1.151,216.502,191.043,196.414
0.081,6.296,1.143,1.143,216.422,191.033,196.452
0.082,6.390,1.140,1.140,216.334,191.014,196.480
0.083,6.493,1.142,1.141,216.237,190.984,196.496
0.084,6.607,1.150,1.150,216.131,190.940,196.495
0.086,6.738,1.167,1.166,216.017,190.881,196.474
0.087,6.889,1.193,1.192,215.894,190.804,196.430
0.088,7.068,1.231,1.230,215.763,190.707,196.358
0.089,7.274,1.281,1.280,215.624,190.591,196.259
0.090,7.504,1.345,1.345,215.480,190.459,196.138
0.092,7.751,1.425,1.426,215.333,190.315,196.000
0.093,8.010,1.519,1.520,215.185,190.163,195.853
0.094,8.273,1.623,1.624,215.038,190.008,195.700
0.095,8.533,1.732,1.734,214.895,189.852,195.548
0.096,8.785,1.842,1.844,214.758,189.700,195.402
0.098,9.020,1.950,1.952,214.628,189.557,195.268
0.099,9.232,2.049,2.051,214.509,189.425,195.151
0.100,9.416,2.138,2.139,214.403,189.308,195.057
0.101,9.565,2.210,2.210,214.311,189.211,194.990
0.102,9.684,2.263,2.262,214.234,189.131,194.949
0.103,9.779,2.301,2.297,214.169,189.065,194.927
0.105,9.855,2.326,2.320,214.118,189.010,194.921
0.106,9.917,2.341,2.334,214.078,188.963,194.926
0.107,9.970,2.352,2.344,214.048,188.919,194.936
0.108,10.018,2.361,2.353,214.029,188.877,194.948
0.109,10.064,2.371,2.365,214.019,188.833,194.957
0.111,10.113,2.387,2.385,214.018,188.784,194.958
0.112,10.172,2.412,2.415,214.024,188.727,194.945
0.113,10.249,2.446,2.456,214.036,188.657,194.916
0.114,10.345,2.486,2.506,214.054,188.576,194.868
0.115,10.457,2.531,2.559,214.075,188.485,194.805
0.117,10.580,2.577,2.614,214.097,188.389,194.732
0.118,10.709,2.623,2.668,214.119,188.290,194.652
0.119,10.838,2.665,2.716,214.137,188.191,194.570
0.120,10.963,2.700,2.756,214.152,188.097,194.490
0.121,11.078,2.727,2.784,214.159,188.009,194.416
0.122,11.178,2.744,2.799,214.158,187.932,194.353
0.124,11.259,2.751,2.802,214.146,187.869,194.304
0.125,11.320,2.750,2.794,214.121,187.822,194.273
0.126,11.369,2.744,2.780,214.082,187.794,194.264
0.127,11.423,2.733,2.760,214.030,187.785,194.275
0.128,11.493,2.718,2.736,213.966,187.791,194.301
0.130,11.578,2.703,2.713,213.892,187.811,194.339
0.131,11.677,2.688,2.690,213.810,187.840,194.385
0.132,11.785,2.674,2.672,213.721,187.877,194.435
0.133,11.898,2.663,2.657,213.628,187.919,194.484
0.134,12.013,2.654,2.646,213.532,187.963,194.529
0.136,12.125,2.645,2.637,213.435,188.007,194.565
0.137,12.232,2.637,2.630,213.339,188.048,194.589
0.138,12.333,2.628,2.623,213.245,188.083,194.597
0.139,12.428,2.619,2.616,213.155,188.112,194.588
0.140,12.523,2.608,2.607,213.067,188.137,194.564
0.141,12.618,2.595,2.595,212.981,188.159,194.529
0.143,12.716,2.580,2.581,212.895,188.180,194.486
0.144,12.816,2.562,2.564,212.810,188.203,194.439
0.145,12.919,2.543,2.545,212.724,188.229,194.390
0.146,13.023,2.522,2.524,212.637,188.261,194.343
0.147,13.130,2.500,2.502,212.547,188.300,194.301
0.149,13.240,2.479,2.480,212.454,188.349,194.268
0.150,13.356,2.457,2.458,212.357,188.410,194.246
0.151,13.482,2.436,2.436,212.255,188.483,194.239
0.152,13.619,2.416,2.416,212.149,188.569,194.245
0.153,13.765,2.398,2.397,212.040,188.666,194.260
0.155,13.921,2.380,2.379,211.928,188.772,194.282
0.156,14.083,2.363,2.363,211.815,188.885,194.308
0.157,14.250,2.348,2.347,211.700,189.004,194.334
0.158,14.419,2.333,2.332,211.586,189.127,194.358
0.159,14.589,2.318,2.318,211.473,189.252,194.376
0.161,14.758,2.304,2.304,211.361,189.378,194.385
0.162,14.924,2.290,2.290,211.252,189.503,194.382
0.163,15.086,2.276,2.276,211.146,189.625,194.364
0.164,15.245,2.263,2.263,211.045,189.743,194.330
0.165,15.401,2.250,2.250,210.947,189.855,194.284
0.166,15.552,2.238,2.238,210.854,189.960,194.228
0.168,15.696,2.227,2.228,210.766,190.056,194.167
0.169,15.832,2.218,2.218,210.682,190.143,194.104
0.170,15.958,2.210,2.210,210.603,190.218,194.041
0.171,16.071,2.204,2.204,210.528,190.280,193.983
0.172,16.169,2.199,2.199,210.459,190.329,193.933
0.174,16.251,2.197,2.197,210.396,190.361,193.894
0.175,16.316,2.195,2.195,210.337,190.377,193.870
0.176,16.369,2.193,2.193,210.284,190.375,193.863
0.177,16.423,2.189,2.189,210.235,190.356,193.874
0.178,16.486,2.184,2.184,210.188,190.326,193.902
0.180,16.561,2.175,2.175,210.142,190.286,193.947
0.181,16.650,2.163,2.163,210.093,190.241,194.006
0.182,16.753,2.145,2.145,210.041,190.194,194.081
0.183,16.867,2.123,2.123,209.984,190.147,194.169
0.184,16.994,2.097,2.097,209.919,190.106,194.269
0.185,17.134,2.068,2.068,209.844,190.073,194.382
0.187,17.286,2.040,2.040,209.759,190.051,194.506
0.188,17.453,2.014,2.014,209.660,190.044,194.641
0.189,17.635,1.992,1.992,209.548,190.053,194.784
0.190,17.830,1.975,1.975,209.424,190.076,194.933
0.191,18.035,1.965,1.965,209.291,190.112,195.085
0.193,18.247,1.964,1.964,209.151,190.156,195.238
0.194,18.462,1.972,1.972,209.007,190.207,195.388
0.195,18.675,1.987,1.987,208.860,190.263,195.533
0.196,18.884,2.006,2.006,208.714,190.322,195.669
0.197,19.083,2.027,2.027,208.569,190.379,195.795
0.199,19.270,2.048,2.048,208.430,190.435,195.906
0.200,19.441,2.068,2.068,208.297,190.485,196.000
0.201,19.592,2.083,2.083,208.173,190.528,196.076
0.202,19.725,2.091,2.091,208.059,190.563,196.133
0.203,19.843,2.092,2.092,207.952,190.592,196.175
0.205,19.948,2.087,2.087,207.854,190.613,196.206
0.206,20.043,2.077,2.077,207.762,190.628,196.227
0.207,20.130,2.064,2.064,207.677,190.636,196.241
0.208,20.211,2.050,2.050,207.597,190.639,196.253
0.209,20.287,2.036,2.036,207.521,190.636,196.263
0.210,20.360,2.025,2.025,207.450,190.628,196.277
0.212,20.431,2.017,2.017,207.383,190.615,196.295
0.213,20.504,2.015,2.015,207.318,190.598,196.322
0.214,20.579,2.018,2.018,207.254,190.576,196.358
0.215,20.659,2.026,2.026,207.193,190.552,196.402
0.216,20.743,2.038,2.038,207.132,190.524,196.453
0.218,20.829,2.052,2.052,207.073,190.495,196.508
0.219,20.918,2.067,2.067,207.013,190.463,196.566
0.220,21.009,2.083,2.083,206.953,190.431,196.625
0.221,21.099,2.098,2.098,206.892,190.398,196.684
0.222,21.189,2.111,2.111,206.830,190.366,196.740
0.224,21.277,2.122,2.122,206.767,190.334,196.793
0.225,21.363,2.130,2.130,206.701,190.304,196.839
0.226,21.446,2.138,2.138,206.633,190.276,196.878
0.227,21.527,2.144,2.144,206.563,190.249,196.910
0.228,21.607,2.150,2.150,206.492,190.224,196.936
0.229,21.685,2.156,2.156,206.421,190.199,196.956
0.231,21.761,2.163,2.163,206.351,190.175,196.972
0.232,21.836,2.171,2.171,206.282,190.150,196.985
0.233,21.908,2.180,2.180,206.216,190.123,196.995
0.234,21.977,2.192,2.192,206.153,190.095,197.003
0.235,22.043,2.204,2.204,206.095,190.065,197.011
0.237,22.106,2.215,2.215,206.041,190.032,197.018
0.238,22.167,2.226,2.226,205.994,189.995,197.027
0.239,22.224,2.235,2.235,205.954,189.956,197.037
0.240,22.280,2.241,2.241,205.919,189.914,197.048
0.241,22.332,2.244,2.244,205.891,189.871,197.060
0.243,22.381,2.243,2.243,205.869,189.829,197.071
0.244,22.427,2.237,2.237,205.851,189.788,197.082
0.245,22.467,2.227,2.227,205.839,189.751,197.091
0.246,22.502,2.214,2.214,205.832,189.717,197.099
0.247,22.530,2.199,2.199,205.829,189.690,197.103
0.249,22.550,2.183,2.183,205.831,189.670,197.105
0.250,22.564,2.167,2.167,205.836,189.657,197.103
0.251,22.575,2.152,2.152,205.845,189.654,197.097
0.252,22.590,2.140,2.140,205.855,189.659,197.087
0.253,22.607,2.130,2.130,205.864,189.667,197.075
0.254,22.624,2.123,2.123,205.870,189.676,197.062
0.256,22.637,2.117,2.117,205.871,189.683,197.050
0.257,22.650,2.113,2.113,205.863,189.683,197.040
0.258,22.671,2.110,2.110,205.845,189.673,197.034
0.259,22.710,2.106,2.106,205.814,189.651,197.032
0.260,22.771,2.100,2.100,205.767,189.612,197.036
0.262,22.858,2.092,2.092,205.703,189.553,197.047
0.263,22.978,2.081,2.081,205.618,189.472,197.068
0.264,23.129,2.067,2.067,205.513,189.366,197.097
0.265,23.308,2.050,2.050,205.392,189.240,197.134
0.266,23.507,2.031,2.031,205.258,189.100,197.177
0.268,23.719,2.013,2.013,205.115,188.950,197.224
0.269,23.938,1.995,1.995,204.970,188.795,197.273
0.270,24.156,1.979,1.979,204.824,188.639,197.323
0.271,24.368,1.966,1.966,204.684,188.488,197.372
0.272,24.566,1.958,1.958,204.553,188.347,197.418
0.273,24.743,1.954,1.954,204.436,188.220,197.459
0.275,24.894,1.956,1.956,204.337,188.113,197.493
0.276,25.011,1.962,1.962,204.259,188.029,197.520
0.277,25.095,1.971,1.971,204.203,187.969,197.538
0.278,25.151,1.982,1.982,204.166,187.929,197.550
0.279,25.181,1.994,1.994,204.145,187.908,197.555
0.281,25.190,2.006,2.006,204.138,187.902,197.556
0.282,25.199,2.016,2.016,204.142,187.908,197.552
0.283,25.220,2.025,2.025,204.154,187.925,197.546
0.284,25.250,2.031,2.031,204.172,187.948,197.538
0.285,25.286,2.034,2.034,204.193,187.976,197.529
0.287,25.324,2.036,2.036,204.214,188.005,197.521
0.288,25.359,2.035,2.035,204.233,188.033,197.513
0.289,25.388,2.033,2.033,204.249,188.058,197.508
0.290,25.412,2.030,2.030,204.260,188.079,197.504
0.291,25.430,2.026,2.026,204.267,188.095,197.503
0.293,25.441,2.021,2.021,204.271,188.105,197.503
0.294,25.446,2.017,2.017,204.271,188.110,197.506
0.295,25.452,2.013,2.013,204.268,188.107,197.511
0.296,25.466,2.008,2.008,204.263,188.097,197.518
0.297,25.489,2.004,2.004,204.254,188.078,197.527
0.298,25.520,2.000,2.000,204.242,188.051,197.538
0.300,25.562,1.995,1.995,204.228,188.014,197.551
0.301,25.615,1.991,1.991,204.212,187.966,197.567
0.302,25.678,1.986,1.986,204.193,187.909,197.585
0.303,25.750,1.981,1.981,204.172,187.842,197.605
0.304,25.833,1.976,1.976,204.147,187.767,197.628
0.306,25.924,1.970,1.970,204.119,187.685,197.655
0.307,26.024,1.964,1.964,204.087,187.595,197.685
0.308,26.132,1.956,1.956,204.052,187.499,197.719
0.309,26.247,1.948,1.948,204.012,187.398,197.757
0.310,26.369,1.937,1.937,203.967,187.292,197.799
0.312,26.499,1.925,1.925,203.917,187.182,197.845
0.313,26.634,1.911,1.911,203.862,187.069,197.897
0.314,26.777,1.894,1.894,203.801,186.954,197.953
0.315,26.925,1.877,1.877,203.734,186.837,198.017
0.316,27.081,1.861,1.861,203.658,186.720,198.087
0.317,27.245,1.848,1.848,203.574,186.605,198.166
0.319,27.417,1.842,1.842,203.479,186.491,198.255
0.320,27.600,1.843,1.843,203.374,186.380,198.354
0.321,27.794,1.855,1.855,203.256,186.273,198.466
0.322,28.001,1.880,1.880,203.125,186.172,198.590
0.323,28.222,1.920,1.920,202.980,186.077,198.728
0.325,28.461,1.976,1.976,202.820,185.989,198.881
0.326,28.718,2.045,2.045,202.643,185.909,199.050
0.327,28.992,2.124,2.124,202.453,185.838,199.233
0.328,29.277,2.210,2.210,202.252,185.774,199.425
0.329,29.570,2.299,2.299,202.045,185.718,199.624
0.331,29.864,2.390,2.390,201.835,185.667,199.824
0.332,30.155,2.477,2.477,201.627,185.622,200.023
0.333,30.438,2.559,2.559,201.423,185.582,200.215
0.334,30.707,2.633,2.633,201.229,185.546,200.398
0.335,30.956,2.697,2.697,201.048,185.514,200.567
0.337,31.181,2.755,2.755,200.884,185.484,200.717
0.338,31.376,2.808,2.808,200.741,185.456,200.846
0.339,31.538,2.858,2.858,200.620,185.430,200.951
0.340,31.671,2.907,2.907,200.519,185.405,201.033
0.341,31.778,2.957,2.957,200.435,185.379,201.095
0.342,31.865,3.010,3.010,200.365,185.352,201.137
0.344,31.937,3.067,3.067,200.304,185.322,201.164
0.345,32.002,3.131,3.131,200.249,185.290,201.175
0.346,32.064,3.199,3.199,200.198,185.254,201.175
0.347,32.131,3.271,3.271,200.147,185.212,201.164
0.348,32.206,3.344,3.344,200.092,185.165,201.145
0.350,32.292,3.417,3.417,200.030,185.112,201.119
0.351,32.391,3.489,3.489,199.958,185.050,201.090
0.352,32.502,3.559,3.559,199.876,184.983,201.057
0.353,32.623,3.624,3.624,199.786,184.910,201.022
0.354,32.750,3.684,3.684,199.692,184.834,200.986
0.356,32.879,3.737,3.737,199.595,184.756,200.949
0.357,33.009,3.785,3.785,199.498,184.679,200.912
0.358,33.135,3.827,3.827,199.403,184.603,200.875
0.359,33.255,3.864,3.864,199.313,184.532,200.840
0.360,33.366,3.896,3.896,199.231,184.466,200.807
0.361,33.464,3.923,3.923,199.158,184.407,200.777
0.363,33.547,3.946,3.946,199.098,184.357,200.751
0.364,33.612,3.964,3.964,199.051,184.317,200.728
0.365,33.662,3.978,3.978,199.017,184.286,200.710
0.366,33.698,3.988,3.988,198.993,184.262,200.696
0.367,33.725,3.996,3.996,198.977,184.244,200.687
0.369,33.743,4.002,4.002,198.967,184.229,200.682
0.370,33.756,4.007,4.007,198.962,184.217,200.681
0.371,33.768,4.011,4.011,198.959,184.206,200.685
0.372,33.783,4.015,4.015,198.957,184.194,200.693
0.373,33.802,4.019,4.019,198.953,184.180,200.705
0.375,33.828,4.025,4.025,198.946,184.161,200.722
0.376,33.862,4.032,4.032,198.934,184.138,200.744
0.377,33.905,4.039,4.039,198.916,184.107,200.769
0.378,33.957,4.045,4.045,198.894,184.069,200.796
0.379,34.017,4.049,4.049,198.869,184.022,200.824
0.380,34.085,4.051,4.051,198.841,183.966,200.851
0.382,34.162,4.050,4.050,198.812,183.899,200.876
0.383,34.248,4.044,4.044,198.783,183.821,200.897
0.384,34.344,4.034,4.034,198.755,183.731,200.913
0.385,34.451,4.018,4.018,198.729,183.627,200.922
0.386,34.571,3.998,3.998,198.706,183.510,200.923
0.388,34.706,3.976,3.976,198.686,183.377,200.915
0.389,34.856,3.953,3.953,198.672,183.229,200.896
0.390,35.018,3.931,3.931,198.662,183.069,200.868
0.391,35.189,3.912,3.912,198.656,182.902,200.834
0.392,35.365,3.896,3.896,198.654,182.731,200.794
0.394,35.541,3.886,3.886,198.656,182.559,200.751
0.395,35.715,3.884,3.884,198.660,182.392,200.707
0.396,35.881,3.888,3.888,198.668,182.232,200.662
0.397,36.036,3.898,3.898,198.678,182.083,200.621
0.398,36.175,3.913,3.913,198.690,181.950,200.583
0.400,36.294,3.931,3.931,198.703,181.835,200.551
0.401,36.390,3.952,3.952,198.718,181.744,200.527
0.402,36.463,3.975,3.975,198.734,181.675,200.510
0.403,36.517,3.998,3.998,198.749,181.624,200.499
0.404,36.557,4.020,4.020,198.763,181.588,200.493
0.405,36.585,4.041,4.041,198.775,181.562,200.488
0.407,36.605,4.059,4.059,198.783,181.544,200.484
0.408,36.622,4.075,4.075,198.788,181.529,200.478
0.409,36.640,4.087,4.087,198.787,181.513,200.470
0.410,36.665,4.094,4.094,198.779,181.493,200.457
0.411,36.702,4.097,4.097,198.765,181.465,200.437
0.413,36.756,4.094,4.094,198.742,181.425,200.409
0.414,36.829,4.084,4.084,198.710,181.371,200.372
0.415,36.919,4.068,4.068,198.669,181.305,200.326
0.416,37.024,4.046,4.046,198.617,181.230,200.274
0.417,37.141,4.018,4.018,198.555,181.150,200.215
0.419,37.268,3.986,3.986,198.481,181.068,200.153
0.420,37.403,3.951,3.951,198.394,180.988,200.087
0.421,37.544,3.913,3.913,198.296,180.913,200.020
0.422,37.691,3.874,3.874,198.184,180.845,199.953
0.423,37.844,3.835,3.835,198.058,180.789,199.887
0.424,38.003,3.797,3.797,197.918,180.748,199.823
0.426,38.170,3.761,3.761,197.763,180.725,199.763
0.427,38.348,3.727,3.727,197.595,180.720,199.707
0.428,38.535,3.695,3.695,197.416,180.732,199.654
0.429,38.730,3.667,3.667,197.229,180.759,199.604
0.430,38.932,3.641,3.641,197.038,180.799,199.554
0.432,39.138,3.619,3.619,196.845,180.851,199.506
0.433,39.345,3.601,3.601,196.652,180.912,199.457
0.434,39.552,3.587,3.587,196.464,180.980,199.407
0.435,39.755,3.579,3.579,196.282,181.055,199.355
0.436,39.952,3.574,3.574,196.110,181.134,199.301
0.438,40.140,3.573,3.573,195.950,181.215,199.243
0.439,40.318,3.576,3.576,195.805,181.297,199.181
0.440,40.486,3.581,3.581,195.673,181.378,199.116
0.441,40.646,3.589,3.589,195.550,181.453,199.047
0.442,40.798,3.598,3.598,195.435,181.523,198.976
0.444,40.944,3.608,3.608,195.324,181.583,198.903
0.445,41.085,3.618,3.618,195.215,181.632,198.829
0.446,41.222,3.629,3.629,195.105,181.667,198.753
0.447,41.360,3.641,3.641,194.993,181.686,198.678
0.448,41.500,3.655,3.655,194.874,181.686,198.602
0.449,41.649,3.672,3.672,194.747,181.666,198.528
0.451,41.811,3.692,3.692,194.609,181.622,198.454
0.452,41.989,3.718,3.718,194.461,181.556,198.383
0.453,42.178,3.750,3.750,194.305,181.472,198.315
0.454,42.376,3.789,3.789,194.146,181.374,198.249
0.455,42.577,3.835,3.835,193.987,181.267,198.188
0.457,42.777,3.888,3.888,193.832,181.154,198.131
0.458,42.971,3.945,3.945,193.683,181.040,198.079
0.459,43.154,4.004,4.004,193.544,180.930,198.034
0.460,43.321,4.063,4.063,193.420,180.827,197.994
0.461,43.466,4.120,4.120,193.312,180.736,197.962
0.463,43.584,4.172,4.172,193.225,180.660,197.937
0.464,43.671,4.218,4.218,193.160,180.604,197.921
0.465,43.730,4.255,4.255,193.117,180.565,197.911
0.466,43.765,4.282,4.282,193.092,180.542,197.907
0.467,43.778,4.299,4.299,193.082,180.533,197.907
0.468,43.783,4.309,4.309,193.084,180.535,197.910
0.470,43.800,4.311,4.311,193.097,180.546,197.914
0.471,43.828,4.307,4.307,193.116,180.565,197.919
0.472,43.862,4.298,4.298,193.140,180.590,197.921
0.473,43.899,4.285,4.285,193.165,180.617,197.922
0.474,43.936,4.269,4.269,193.188,180.646,197.918
0.476,43.972,4.250,4.250,193.208,180.674,197.908
0.477,44.006,4.230,4.230,193.222,180.700,197.892
0.478,44.042,4.210,4.210,193.230,180.728,197.870
0.479,44.083,4.189,4.189,193.232,180.756,197.840
0.480,44.132,4.168,4.168,193.228,180.789,197.803
0.482,44.191,4.149,4.149,193.219,180.825,197.758
0.483,44.261,4.130,4.130,193.203,180.868,197.706
0.484,44.343,4.115,4.115,193.181,180.919,197.645
0.485,44.439,4.101,4.101,193.152,180.978,197.575
