"T","Distance","Radius","FreeRadius","X","Y","Z"
0.000,0.000,1.178,1.178,219.753,194.199,196.930
0.001,0.209,1.226,1.226,219.750,194.071,196.765
0.003,0.416,1.273,1.273,219.747,193.944,196.601
0.004,0.620,1.316,1.316,219.743,193.818,196.441
0.006,0.820,1.353,1.353,219.738,193.695,196.284
0.007,1.013,1.384,1.384,219.732,193.574,196.133
0.009,1.198,1.405,1.405,219.724,193.457,195.990
0.010,1.374,1.416,1.416,219.714,193.345,195.854
0.012,1.539,1.415,1.415,219.702,193.239,195.729
0.013,1.692,1.405,1.405,219.688,193.138,195.615
0.015,1.831,1.391,1.391,219.670,193.044,195.513
0.016,1.957,1.374,1.374,219.649,192.956,195.425
0.017,2.072,1.360,1.360,219.621,192.873,195.351
0.019,2.179,1.352,1.352,219.585,192.794,195.291
0.020,2.281,1.353,1.353,219.539,192.715,195.244
0.022,2.385,1.365,1.365,219.480,192.637,195.211
0.023,2.495,1.385,1.385,219.406,192.556,195.193
0.025,2.619,1.408,1.408,219.315,192.471,195.188
0.026,2.761,1.431,1.431,219.206,192.381,195.199
0.028,2.926,1.448,1.448,219.075,192.285,195.223
0.029,3.115,1.457,1.457,218.923,192.179,195.262
0.031,3.326,1.452,1.452,218.752,192.067,195.312
0.032,3.550,1.431,1.431,218.569,191.951,195.372
0.033,3.783,1.399,1.399,218.379,191.834,195.438
0.035,4.017,1.359,1.359,218.189,191.717,195.507
0.036,4.245,1.317,1.317,218.004,191.604,195.577
0.038,4.460,1.276,1.276,217.830,191.497,195.644
0.039,4.656,1.241,1.241,217.672,191.398,195.706
0.041,4.826,1.216,1.216,217.537,191.310,195.760
0.042,4.963,1.203,1.203,217.430,191.236,195.803
0.044,5.065,1.201,1.201,217.353,191.176,195.834
0.045,5.138,1.207,1.207,217.302,191.129,195.855
0.047,5.186,1.218,1.218,217.271,191.094,195.868
0.048,5.216,1.233,1.233,217.257,191.068,195.876
0.049,5.234,1.247,1.247,217.255,191.051,195.879
0.051,5.245,1.260,1.260,217.260,191.041,195.881
0.052,5.254,1.269,1.269,217.267,191.036,195.883
0.054,5.262,1.275,1.275,217.272,191.035,195.888
0.055,5.271,1.278,1.278,217.271,191.036,195.897
0.057,5.290,1.279,1.279,217.259,191.038,195.912
0.058,5.321,1.278,1.278,217.237,191.041,195.933
0.060,5.361,1.275,1.275,217.206,191.043,195.959
0.061,5.408,1.271,1.271,217.169,191.046,195.987
0.063,5.458,1.267,1.267,217.128,191.048,196.017
0.064,5.511,1.262,1.262,217.085,191.050,196.047
0.066,5.563,1.258,1.258,217.042,191.052,196.075
0.067,5.611,1.254,1.254,217.001,191.053,196.101
0.068,5.654,1.252,1.252,216.964,191.053,196.123
0.070,5.689,1.250,1.250,216.933,191.052,196.140
0.071,5.716,1.251,1.251,216.909,191.049,196.150
0.073,5.736,1.253,1.253,216.890,191.046,196.157
0.074,5.752,1.256,1.255,216.875,191.043,196.161
0.076,5.768,1.257,1.257,216.860,191.040,196.165
0.077,5.784,1.258,1.258,216.845,191.037,196.170
0.079,5.804,1.255,1.255,216.827,191.035,196.178
0.080,5.830,1.249,1.249,216.805,191.034,196.191
0.082,5.865,1.238,1.238,216.776,191.034,196.212
0.083,5.912,1.222,1.223,216.740,191.036,196.241
0.084,5.973,1.204,1.204,216.692,191.040,196.280
0.086,6.047,1.185,1.185,216.635,191.044,196.326
0.087,6.132,1.167,1.167,216.566,191.046,196.375
0.089,6.224,1.152,1.152,216.487,191.041,196.422
0.090,6.323,1.142,1.142,216.397,191.028,196.461
0.092,6.430,1.138,1.138,216.296,191.003,196.488
0.093,6.548,1.142,1.142,216.185,190.963,196.497
0.095,6.683,1.157,1.156,216.063,190.906,196.485
0.096,6.842,1.183,1.182,215.931,190.828,196.445
0.098,7.031,1.222,1.222,215.787,190.727,196.373
0.099,7.255,1.277,1.276,215.635,190.601,196.268
0.100,7.508,1.348,1.347,215.475,190.457,196.136
0.102,7.781,1.436,1.437,215.312,190.297,195.985
0.103,8.068,1.540,1.542,215.148,190.129,195.821
0.105,8.357,1.654,1.656,214.987,189.958,195.653
0.106,8.641,1.772,1.774,214.831,189.787,195.487
0.108,8.911,1.887,1.890,214.684,189.624,195.332
0.109,9.156,1.995,1.997,214.549,189.472,195.193
0.111,9.369,2.090,2.090,214.429,189.338,195.080
0.112,9.541,2.166,2.164,214.327,189.226,194.998
0.114,9.675,2.223,2.219,214.243,189.135,194.947
0.115,9.779,2.266,2.259,214.176,189.061,194.921
0.116,9.860,2.299,2.290,214.123,189.000,194.913
0.118,9.925,2.325,2.315,214.084,188.948,194.918
0.119,9.981,2.348,2.341,214.056,188.901,194.930
0.121,10.032,2.373,2.371,214.039,188.855,194.943
0.122,10.084,2.403,2.410,214.030,188.804,194.950
0.124,10.142,2.438,2.457,214.028,188.746,194.947
0.125,10.215,2.476,2.508,214.031,188.676,194.926
0.127,10.309,2.515,2.561,214.038,188.592,194.885
0.128,10.422,2.553,2.611,214.049,188.496,194.826
0.130,10.548,2.589,2.655,214.061,188.393,194.754
0.131,10.683,2.620,2.691,214.074,188.287,194.673
0.132,10.819,2.646,2.714,214.087,188.180,194.588
0.134,10.952,2.665,2.726,214.098,188.079,194.503
0.135,11.076,2.679,2.730,214.108,187.985,194.422
0.137,11.185,2.689,2.727,214.115,187.904,194.350
0.138,11.274,2.697,2.721,214.118,187.839,194.290
0.140,11.336,2.702,2.714,214.115,187.793,194.248
0.141,11.373,2.707,2.709,214.109,187.767,194.223
0.143,11.391,2.713,2.707,214.100,187.756,194.211
0.144,11.399,2.719,2.710,214.092,187.758,194.210
0.146,11.411,2.725,2.715,214.087,187.767,194.215
0.147,11.426,2.732,2.723,214.086,187.780,194.222
0.148,11.444,2.739,2.733,214.093,187.795,194.230
0.150,11.463,2.747,2.744,214.108,187.805,194.233
0.151,11.491,2.754,2.754,214.135,187.809,194.229
0.153,11.535,2.762,2.764,214.176,187.802,194.214
0.154,11.601,2.770,2.772,214.232,187.782,194.185
0.156,11.686,2.775,2.778,214.300,187.749,194.145
0.157,11.786,2.778,2.780,214.375,187.706,194.096
0.159,11.896,2.777,2.779,214.456,187.653,194.043
0.160,12.011,2.771,2.772,214.536,187.594,193.987
0.162,12.126,2.759,2.759,214.614,187.529,193.931
0.163,12.237,2.740,2.739,214.684,187.461,193.879
0.164,12.339,2.717,2.716,214.744,187.392,193.834
0.166,12.429,2.693,2.692,214.789,187.322,193.799
0.167,12.504,2.671,2.670,214.815,187.255,193.776
0.169,12.570,2.654,2.653,214.825,187.190,193.766
0.170,12.633,2.644,2.643,214.821,187.128,193.769
0.172,12.695,2.645,2.645,214.811,187.068,193.781
0.173,12.760,2.658,2.659,214.799,187.008,193.803
0.175,12.826,2.680,2.681,214.790,186.950,193.831
0.176,12.893,2.705,2.707,214.790,186.891,193.866
0.178,12.965,2.728,2.731,214.804,186.833,193.904
0.179,13.045,2.745,2.748,214.837,186.773,193.946
0.180,13.139,2.750,2.752,214.895,186.713,193.989
0.182,13.253,2.739,2.739,214.980,186.650,194.031
0.183,13.386,2.708,2.705,215.090,186.587,194.073
0.185,13.535,2.660,2.655,215.218,186.522,194.113
0.186,13.695,2.599,2.594,215.359,186.457,194.151
0.188,13.859,2.530,2.527,215.505,186.391,194.186
0.189,14.022,2.455,2.459,215.651,186.326,194.217
0.191,14.179,2.379,2.396,215.792,186.262,194.245
0.192,14.324,2.306,2.344,215.920,186.199,194.268
0.194,14.451,2.239,2.304,216.030,186.137,194.286
0.195,14.557,2.179,2.277,216.117,186.078,194.298
0.197,14.641,2.127,2.259,216.177,186.020,194.305
0.198,14.708,2.083,2.248,216.217,185.965,194.305
0.199,14.766,2.049,2.241,216.238,185.912,194.302
0.201,14.819,2.025,2.237,216.247,185.860,194.294
0.202,14.870,2.012,2.233,216.247,185.810,194.282
0.204,14.921,2.010,2.227,216.242,185.762,194.268
0.205,14.971,2.015,2.219,216.238,185.715,194.251
0.207,15.021,2.025,2.210,216.237,185.669,194.232
0.208,15.070,2.037,2.199,216.244,185.624,194.212
0.210,15.123,2.046,2.187,216.263,185.580,194.191
0.211,15.180,2.051,2.174,216.295,185.537,194.170
0.213,15.245,2.047,2.160,216.338,185.493,194.150
0.214,15.318,2.034,2.144,216.391,185.447,194.131
0.215,15.398,2.011,2.127,216.454,185.400,194.113
0.217,15.487,1.981,2.107,216.525,185.350,194.097
0.218,15.583,1.946,2.083,216.604,185.297,194.084
0.220,15.686,1.906,2.054,216.690,185.240,194.073
0.221,15.797,1.862,2.019,216.781,185.179,194.067
0.223,15.914,1.818,1.978,216.877,185.111,194.064
0.224,16.037,1.773,1.931,216.977,185.039,194.066
0.226,16.164,1.730,1.880,217.078,184.962,194.071
0.227,16.292,1.690,1.828,217.179,184.884,194.079
0.229,16.419,1.654,1.778,217.277,184.804,194.088
0.230,16.542,1.625,1.732,217.370,184.725,194.097
0.231,16.658,1.603,1.693,217.457,184.648,194.107
0.233,16.765,1.591,1.665,217.535,184.575,194.116
0.234,16.861,1.589,1.646,217.601,184.506,194.122
0.236,16.942,1.592,1.635,217.655,184.445,194.126
0.237,17.009,1.599,1.629,217.694,184.391,194.127
0.239,17.063,1.607,1.626,217.722,184.344,194.124
0.240,17.111,1.613,1.623,217.744,184.302,194.120
0.242,17.157,1.614,1.617,217.765,184.261,194.115
0.243,17.206,1.608,1.606,217.790,184.220,194.111
0.245,17.261,1.594,1.590,217.825,184.177,194.110
0.246,17.331,1.577,1.571,217.875,184.129,194.111
0.247,17.420,1.558,1.553,217.945,184.073,194.117
0.249,17.536,1.543,1.539,218.040,184.008,194.129
0.250,17.685,1.534,1.532,218.166,183.931,194.148
0.252,17.868,1.535,1.534,218.324,183.842,194.174
0.253,18.077,1.549,1.550,218.506,183.744,194.207
0.255,18.304,1.576,1.577,218.703,183.640,194.245
0.256,18.538,1.611,1.612,218.908,183.535,194.288
0.258,18.772,1.649,1.651,219.113,183.430,194.333
0.259,18.996,1.687,1.688,219.308,183.331,194.380
0.261,19.202,1.719,1.720,219.486,183.240,194.428
0.262,19.379,1.742,1.742,219.638,183.161,194.475
0.263,19.521,1.750,1.750,219.756,183.097,194.521
0.265,19.620,1.744,1.744,219.832,183.052,194.564
0.266,19.680,1.729,1.728,219.871,183.025,194.602
0.268,19.716,1.708,1.707,219.881,183.012,194.634
0.269,19.741,1.685,1.685,219.871,183.009,194.657
0.271,19.766,1.666,1.666,219.851,183.014,194.670
0.272,19.788,1.654,1.654,219.830,183.022,194.671
0.274,19.809,1.653,1.653,219.817,183.031,194.656
0.275,19.840,1.665,1.665,219.823,183.036,194.626
0.277,19.899,1.688,1.688,219.856,183.034,194.577
0.278,19.997,1.722,1.722,219.925,183.022,194.508
0.279,20.141,1.766,1.766,220.035,182.998,194.419
0.281,20.324,1.819,1.819,220.180,182.963,194.314
0.282,20.534,1.880,1.880,220.350,182.918,194.198
0.284,20.763,1.948,1.948,220.537,182.865,194.077
0.285,21.000,2.021,2.020,220.733,182.807,193.957
0.287,21.235,2.096,2.096,220.928,182.744,193.842
0.288,21.457,2.170,2.170,221.114,182.680,193.739
0.290,21.658,2.242,2.242,221.283,182.614,193.651
0.291,21.828,2.307,2.307,221.425,182.550,193.585
0.293,21.958,2.364,2.364,221.533,182.489,193.546
0.294,22.052,2.410,2.410,221.606,182.431,193.534
0.295,22.124,2.444,2.444,221.651,182.376,193.544
0.297,22.189,2.470,2.470,221.674,182.323,193.573
0.298,22.256,2.489,2.489,221.679,182.272,193.617
0.300,22.330,2.502,2.502,221.674,182.222,193.672
0.301,22.410,2.511,2.511,221.664,182.173,193.734
0.303,22.492,2.519,2.519,221.654,182.125,193.799
0.304,22.573,2.526,2.526,221.651,182.076,193.864
0.306,22.652,2.535,2.535,221.661,182.027,193.925
0.307,22.729,2.545,2.545,221.688,181.977,193.978
0.309,22.808,2.557,2.557,221.729,181.928,194.023
0.310,22.890,2.572,2.572,221.781,181.879,194.063
0.311,22.973,2.591,2.591,221.842,181.832,194.096
0.313,23.056,2.615,2.615,221.906,181.788,194.123
0.314,23.137,2.643,2.643,221.972,181.747,194.146
0.316,23.212,2.676,2.676,222.036,181.711,194.165
0.317,23.280,2.709,2.709,222.094,181.681,194.181
0.319,23.336,2.743,2.743,222.144,181.657,194.194
0.320,23.378,2.773,2.773,222.181,181.641,194.204
0.322,23.407,2.799,2.799,222.206,181.632,194.213
0.323,23.424,2.817,2.817,222.221,181.627,194.221
0.325,23.434,2.828,2.828,222.228,181.626,194.228
0.326,23.440,2.831,2.831,222.229,181.627,194.234
0.328,23.447,2.828,2.828,222.226,181.627,194.241
0.329,23.456,2.822,2.822,222.221,181.626,194.247
0.330,23.466,2.814,2.814,222.217,181.621,194.255
0.332,23.480,2.806,2.806,222.215,181.610,194.263
0.333,23.500,2.799,2.799,222.219,181.592,194.273
0.335,23.531,2.796,2.796,222.228,181.566,194.285
0.336,23.571,2.796,2.796,222.243,181.531,194.298
0.338,23.618,2.798,2.798,222.264,181.491,194.312
0.339,23.672,2.802,2.802,222.288,181.445,194.326
0.341,23.730,2.808,2.808,222.314,181.394,194.339
0.342,23.791,2.815,2.815,222.342,181.342,194.351
0.344,23.853,2.823,2.823,222.371,181.287,194.361
0.345,23.915,2.831,2.831,222.398,181.233,194.368
0.346,23.975,2.838,2.838,222.425,181.179,194.371
0.348,24.031,2.845,2.845,222.448,181.128,194.371
0.349,24.084,2.850,2.850,222.468,181.079,194.367
0.351,24.135,2.853,2.853,222.486,181.032,194.359
0.352,24.184,2.854,2.854,222.501,180.987,194.347
0.354,24.233,2.852,2.852,222.513,180.941,194.333
0.355,24.284,2.848,2.848,222.524,180.895,194.315
0.357,24.335,2.841,2.841,222.533,180.849,194.295
0.358,24.389,2.834,2.834,222.540,180.800,194.273
0.360,24.446,2.828,2.828,222.547,180.749,194.249
0.361,24.507,2.823,2.823,222.553,180.694,194.223
0.362,24.571,2.822,2.822,222.558,180.636,194.196
0.364,24.638,2.825,2.825,222.565,180.575,194.170
0.365,24.706,2.832,2.832,222.574,180.512,194.145
0.367,24.774,2.843,2.843,222.587,180.450,194.122
0.368,24.840,2.854,2.854,222.606,180.388,194.104
0.370,24.906,2.866,2.865,222.632,180.330,194.091
0.371,24.971,2.874,2.874,222.667,180.276,194.085
0.373,25.037,2.878,2.878,222.712,180.227,194.088
0.374,25.109,2.876,2.876,222.770,180.186,194.099
0.376,25.190,2.868,2.868,222.840,180.152,194.122
0.377,25.283,2.854,2.854,222.924,180.128,194.155
0.378,25.387,2.837,2.837,223.017,180.111,194.196
0.380,25.498,2.820,2.820,223.118,180.099,194.243
0.381,25.614,2.803,2.804,223.222,180.092,194.294
0.383,25.730,2.790,2.790,223.326,180.089,194.345
0.384,25.844,2.782,2.782,223.428,180.087,194.395
0.386,25.950,2.781,2.781,223.524,180.085,194.440
0.387,26.046,2.785,2.784,223.612,180.082,194.479
0.389,26.127,2.792,2.791,223.687,180.076,194.509
0.390,26.190,2.801,2.800,223.747,180.067,194.527
0.392,26.240,2.811,2.810,223.794,180.053,194.536
0.393,26.280,2.821,2.820,223.830,180.036,194.537
0.394,26.316,2.828,2.829,223.859,180.016,194.533
0.396,26.351,2.833,2.835,223.884,179.992,194.526
0.397,26.386,2.836,2.839,223.907,179.966,194.519
0.399,26.424,2.837,2.841,223.931,179.938,194.514
0.400,26.465,2.837,2.842,223.960,179.908,194.514
0.402,26.514,2.837,2.840,223.996,179.877,194.521
0.403,26.573,2.836,2.838,224.043,179.844,194.538
0.405,26.644,2.836,2.834,224.100,179.810,194.565
0.406,26.727,2.836,2.829,224.167,179.777,194.600
0.408,26.819,2.836,2.825,224.240,179.743,194.643
0.409,26.916,2.836,2.820,224.318,179.709,194.690
0.410,27.015,2.834,2.818,224.397,179.676,194.740
0.412,27.114,2.831,2.817,224.476,179.644,194.791
0.413,27.209,2.825,2.819,224.551,179.614,194.841
0.415,27.298,2.816,2.824,224.620,179.585,194.888
0.416,27.377,2.805,2.832,224.681,179.558,194.930
0.418,27.443,2.792,2.842,224.732,179.534,194.966
0.419,27.499,2.779,2.851,224.775,179.513,194.995
0.421,27.548,2.766,2.860,224.814,179.495,195.019
0.422,27.595,2.755,2.865,224.852,179.479,195.040
0.424,27.643,2.746,2.866,224.895,179.468,195.058
0.425,27.697,2.742,2.861,224.946,179.459,195.076
0.426,27.763,2.741,2.850,225.009,179.455,195.095
0.428,27.846,2.742,2.834,225.088,179.454,195.116
0.429,27.949,2.746,2.817,225.189,179.457,195.141
0.431,28.078,2.751,2.799,225.314,179.465,195.171
0.432,28.233,2.756,2.781,225.464,179.477,195.207
0.434,28.410,2.761,2.767,225.636,179.491,195.246
0.435,28.601,2.764,2.756,225.822,179.508,195.289
0.437,28.801,2.765,2.751,226.016,179.525,195.332
0.438,29.003,2.766,2.750,226.213,179.542,195.375
0.440,29.201,2.768,2.753,226.406,179.557,195.415
0.441,29.389,2.771,2.760,226.590,179.570,195.452
0.443,29.560,2.776,2.770,226.758,179.578,195.483
0.444,29.707,2.784,2.783,226.904,179.581,195.507
0.445,29.827,2.797,2.799,227.022,179.578,195.521
0.447,29.921,2.813,2.817,227.115,179.569,195.528
0.448,29.997,2.831,2.835,227.189,179.552,195.526
0.450,30.063,2.849,2.853,227.250,179.529,195.517
0.451,30.127,2.865,2.868,227.305,179.498,195.502
0.453,30.197,2.878,2.879,227.360,179.460,195.481
0.454,30.277,2.886,2.886,227.421,179.415,195.456
0.456,30.372,2.887,2.887,227.495,179.362,195.427
0.457,30.488,2.884,2.883,227.588,179.302,195.396
0.459,30.629,2.879,2.878,227.708,179.234,195.362
0.460,30.799,2.877,2.875,227.856,179.159,195.328
0.461,30.990,2.879,2.878,228.027,179.081,195.297
0.463,31.195,2.890,2.889,228.216,179.003,195.271
0.464,31.407,2.912,2.912,228.414,178.928,195.254
0.466,31.619,2.950,2.950,228.614,178.862,195.250
0.467,31.823,3.000,3.001,228.811,178.807,195.261
0.469,32.015,3.061,3.061,228.996,178.766,195.291
0.470,32.191,3.129,3.129,229.163,178.745,195.344
0.472,32.353,3.200,3.201,229.304,178.747,195.422
0.473,32.509,3.273,3.273,229.414,178.774,195.528
0.475,32.673,3.343,3.343,229.493,178.828,195.662
0.476,32.854,3.407,3.407,229.545,178.903,195.818
0.477,33.053,3.467,3.467,229.576,178.996,195.992
0.479,33.268,3.523,3.523,229.592,179.103,196.178
0.480,33.495,3.577,3.577,229.599,179.220,196.372
0.482,33.727,3.630,3.630,229.600,179.344,196.568
0.483,33.958,3.683,3.683,229.603,179.471,196.762
0.485,34.183,3.737,3.737,229.613,179.596,196.948
0.486,34.396,3.795,3.795,229.634,179.716,197.123
0.488,34.593,3.853,3.853,229.671,179.827,197.281
0.489,34.775,3.912,3.912,229.721,179.930,197.423
0.491,34.942,3.968,3.968,229.780,180.024,197.548
0.492,35.094,4.021,4.021,229.842,180.109,197.657
0.493,35.229,4.068,4.068,229.904,180.184,197.751
0.495,35.346,4.108,4.108,229.961,180.251,197.828
0.496,35.443,4.139,4.139,230.009,180.308,197.890
0.498,35.519,4.164,4.163,230.044,180.356,197.937
0.499,35.572,4.182,4.182,230.060,180.395,197.969
0.501,35.606,4.198,4.198,230.055,180.424,197.987
0.502,35.639,4.211,4.211,230.029,180.444,197.992
0.504,35.679,4.225,4.225,229.992,180.456,197.988
0.505,35.721,4.242,4.242,229.951,180.462,197.980
0.507,35.759,4.262,4.262,229.915,180.461,197.971
0.508,35.783,4.282,4.282,229.891,180.455,197.965
0.509,35.793,4.301,4.301,229.889,180.445,197.966
0.511,35.826,4.314,4.314,229.917,180.432,197.978
0.512,35.899,4.318,4.318,229.983,180.418,198.005
0.514,36.022,4.310,4.310,230.096,180.402,198.051
0.515,36.200,4.288,4.288,230.260,180.385,198.119
0.517,36.429,4.249,4.249,230.471,180.370,198.206
0.518,36.699,4.198,4.198,230.719,180.356,198.311
0.520,36.999,4.141,4.141,230.995,180.344,198.429
0.521,37.320,4.083,4.083,231.289,180.336,198.558
0.523,37.653,4.030,4.030,231.593,180.331,198.695
0.524,37.988,3.988,3.988,231.896,180.331,198.836
0.525,38.315,3.961,3.961,232.190,180.337,198.979
0.527,38.624,3.953,3.953,232.465,180.349,199.121
0.528,38.908,3.960,3.960,232.713,180.368,199.258
0.530,39.161,3.977,3.977,232.928,180.394,199.389
0.531,39.386,3.998,3.998,233.112,180.425,199.514
0.533,39.584,4.019,4.019,233.268,180.459,199.632
0.534,39.758,4.034,4.034,233.396,180.494,199.744
0.536,39.909,4.038,4.038,233.498,180.529,199.849
0.537,40.039,4.028,4.028,233.576,180.562,199.948
0.539,40.150,4.010,4.010,233.631,180.591,200.040
0.540,40.246,3.986,3.986,233.666,180.614,200.126
0.541,40.329,3.961,3.961,233.682,180.629,200.206
0.543,40.402,3.939,3.939,233.682,180.635,200.279
0.544,40.467,3.925,3.925,233.670,180.635,200.343
0.546,40.521,3.923,3.923,233.656,180.630,200.395
0.547,40.562,3.934,3.934,233.645,180.624,200.433
0.549,40.584,3.956,3.956,233.644,180.621,200.455
0.550,40.602,3.985,3.985,233.662,180.623,200.458
0.552,40.650,4.017,4.017,233.705,180.633,200.438
0.553,40.740,4.049,4.049,233.781,180.655,200.394
0.555,40.880,4.076,4.076,233.896,180.691,200.323
0.556,41.079,4.095,4.095,234.058,180.744,200.222
0.557,41.335,4.105,4.105,234.267,180.815,200.092
0.559,41.637,4.106,4.106,234.514,180.900,199.940
0.560,41.971,4.101,4.101,234.787,180.995,199.773
0.562,42.324,4.090,4.090,235.076,181.096,199.597
0.563,42.682,4.076,4.076,235.371,181.197,199.420
0.565,43.033,4.059,4.059,235.659,181.296,199.248
0.566,43.361,4.042,4.042,235.932,181.387,199.088
0.568,43.655,4.024,4.024,236.177,181.466,198.948
0.569,43.901,4.008,4.008,236.385,181.530,198.833
0.571,44.087,3.992,3.992,236.546,181.574,198.751
0.572,44.218,3.978,3.978,236.664,181.599,198.698
0.574,44.309,3.966,3.966,236.750,181.605,198.670
0.575,44.375,3.956,3.956,236.814,181.594,198.661
0.576,44.434,3.949,3.949,236.867,181.568,198.666
0.578,44.501,3.945,3.945,236.919,181.527,198.678
0.579,44.583,3.946,3.946,236.980,181.474,198.692
0.581,44.687,3.952,3.952,237.061,181.409,198.703
0.582,44.821,3.965,3.965,237.172,181.335,198.705
0.584,44.994,3.986,3.986,237.323,181.252,198.692
0.585,45.212,4.015,4.015,237.519,181.162,198.662
0.587,45.468,4.053,4.053,237.752,181.066,198.614
0.588,45.753,4.100,4.100,238.012,180.967,198.551
0.590,46.059,4.151,4.151,238.290,180.867,198.474
0.591,46.375,4.203,4.203,238.576,180.767,198.384
0.592,46.694,4.252,4.252,238.862,180.669,198.283
