"T","Distance","Radius","FreeRadius","X","Y","Z"
0.000,0.000,1.095,1.095,212.142,186.937,169.697
0.001,0.076,1.078,1.078,212.188,186.992,169.672
0.002,0.153,1.061,1.061,212.234,187.046,169.644
0.003,0.232,1.047,1.047,212.281,187.102,169.613
0.004,0.313,1.037,1.037,212.328,187.158,169.576
0.005,0.400,1.030,1.030,212.375,187.214,169.532
0.006,0.492,1.029,1.029,212.423,187.272,169.478
0.007,0.593,1.035,1.035,212.472,187.331,169.412
0.008,0.704,1.049,1.049,212.521,187.392,169.333
0.009,0.828,1.071,1.071,212.572,187.454,169.238
0.010,0.967,1.103,1.103,212.624,187.517,169.126
0.011,1.123,1.146,1.146,212.677,187.583,168.995
0.012,1.295,1.199,1.199,212.730,187.650,168.847
0.013,1.478,1.259,1.259,212.784,187.716,168.684
0.014,1.669,1.324,1.324,212.836,187.778,168.511
0.015,1.864,1.393,1.393,212.886,187.836,168.332
0.016,2.057,1.463,1.463,212.933,187.886,168.151
0.017,2.244,1.533,1.533,212.976,187.926,167.974
0.018,2.422,1.599,1.599,213.013,187.955,167.802
0.019,2.586,1.660,1.660,213.045,187.970,167.642
0.020,2.734,1.715,1.715,213.069,187.969,167.496
0.021,2.863,1.760,1.760,213.086,187.950,167.369
0.022,2.975,1.797,1.797,213.093,187.913,167.264
0.023,3.074,1.825,1.825,213.093,187.861,167.180
0.024,3.163,1.846,1.846,213.086,187.800,167.114
0.025,3.245,1.863,1.863,213.073,187.737,167.064
0.026,3.317,1.874,1.874,213.055,187.678,167.027
0.027,3.377,1.883,1.883,213.034,187.628,167.001
0.028,3.423,1.889,1.889,213.010,187.594,166.982
0.029,3.454,1.895,1.895,212.985,187.581,166.970
0.030,3.485,1.902,1.902,212.959,187.595,166.960
0.031,3.539,1.910,1.910,212.935,187.643,166.951
0.032,3.629,1.920,1.920,212.912,187.730,166.940
0.033,3.756,1.930,1.930,212.891,187.854,166.926
0.034,3.911,1.940,1.940,212.870,188.006,166.907
0.035,4.085,1.949,1.949,212.848,188.177,166.885
0.036,4.269,1.955,1.955,212.822,188.357,166.858
0.037,4.453,1.957,1.957,212.792,188.536,166.826
0.038,4.630,1.954,1.954,212.756,188.705,166.788
0.039,4.791,1.945,1.945,212.711,188.854,166.745
0.040,4.931,1.929,1.929,212.656,188.973,166.695
0.041,5.049,1.904,1.904,212.591,189.052,166.639
0.042,5.154,1.871,1.871,212.512,189.083,166.576
0.043,5.273,1.831,1.831,212.420,189.058,166.505
0.044,5.422,1.786,1.786,212.314,188.985,166.430
0.045,5.601,1.737,1.737,212.196,188.875,166.352
0.046,5.802,1.688,1.688,212.068,188.741,166.273
0.047,6.018,1.639,1.639,211.931,188.593,166.196
0.048,6.238,1.593,1.593,211.787,188.443,166.124
0.049,6.454,1.551,1.551,211.637,188.303,166.057
0.050,6.657,1.517,1.517,211.483,188.184,166.000
0.051,6.842,1.490,1.490,211.326,188.098,165.953
0.052,7.009,1.474,1.474,211.167,188.056,165.920
0.053,7.169,1.466,1.466,211.009,188.070,165.902
0.054,7.342,1.466,1.466,210.852,188.141,165.900
0.055,7.536,1.472,1.472,210.698,188.260,165.910
0.056,7.752,1.483,1.483,210.550,188.416,165.929
0.056,7.986,1.497,1.497,210.408,188.599,165.954
0.057,8.229,1.513,1.513,210.274,188.801,165.982
0.058,8.473,1.530,1.530,210.150,189.009,166.010
0.059,8.709,1.546,1.546,210.038,189.215,166.035
0.060,8.927,1.561,1.561,209.939,189.409,166.053
0.061,9.118,1.572,1.572,209.855,189.579,166.061
0.062,9.271,1.579,1.579,209.787,189.717,166.056
0.063,9.382,1.583,1.583,209.737,189.814,166.036
0.064,9.458,1.584,1.584,209.701,189.871,166.002
0.065,9.518,1.582,1.582,209.673,189.894,165.954
0.066,9.582,1.577,1.577,209.649,189.885,165.895
0.067,9.663,1.569,1.569,209.625,189.849,165.827
0.068,9.763,1.559,1.559,209.594,189.791,165.751
0.069,9.882,1.546,1.546,209.552,189.715,165.670
0.070,10.020,1.531,1.531,209.494,189.625,165.584
0.071,10.175,1.514,1.514,209.415,189.525,165.495
0.072,10.348,1.495,1.495,209.310,189.420,165.406
0.073,10.542,1.474,1.474,209.174,189.313,165.319
0.074,10.756,1.452,1.452,209.008,189.207,165.233
0.075,10.988,1.429,1.429,208.816,189.105,165.153
0.076,11.232,1.405,1.405,208.606,189.006,165.078
0.077,11.484,1.380,1.380,208.383,188.911,165.011
0.078,11.737,1.355,1.355,208.152,188.822,164.954
0.079,11.987,1.329,1.329,207.921,188.739,164.908
0.080,12.227,1.304,1.304,207.696,188.664,164.875
0.081,12.452,1.279,1.279,207.482,188.597,164.857
0.082,12.657,1.254,1.254,207.285,188.540,164.854
0.083,12.837,1.231,1.231,207.112,188.493,164.870
0.084,12.990,1.209,1.209,206.967,188.457,164.904
0.085,13.120,1.190,1.190,206.850,188.431,164.955
0.086,13.233,1.172,1.172,206.758,188.415,165.019
0.087,13.334,1.158,1.158,206.688,188.407,165.091
0.088,13.425,1.147,1.147,206.638,188.406,165.167
0.089,13.510,1.139,1.139,206.606,188.411,165.245
0.090,13.588,1.136,1.136,206.587,188.420,165.321
0.091,13.658,1.138,1.138,206.581,188.433,165.389
0.092,13.718,1.144,1.144,206.584,188.448,165.447
0.093,13.766,1.154,1.154,206.594,188.464,165.492
0.094,13.800,1.166,1.166,206.607,188.481,165.518
0.095,13.823,1.179,1.179,206.621,188.498,165.526
0.096,13.844,1.191,1.191,206.628,188.516,165.519
0.097,13.872,1.201,1.201,206.624,188.538,165.502
0.098,13.913,1.209,1.209,206.603,188.564,165.479
0.099,13.975,1.212,1.212,206.558,188.597,165.453
0.100,14.062,1.210,1.210,206.484,188.637,165.429
0.101,14.184,1.201,1.201,206.375,188.687,165.410
0.102,14.346,1.184,1.184,206.225,188.748,165.401
0.103,14.555,1.162,1.162,206.028,188.821,165.407
0.104,14.820,1.136,1.136,205.779,188.909,165.430
0.105,15.145,1.110,1.110,205.474,189.011,165.473
0.106,15.522,1.084,1.084,205.120,189.126,165.535
0.107,15.938,1.062,1.062,204.731,189.249,165.610
0.108,16.378,1.045,1.045,204.318,189.378,165.693
0.109,16.831,1.036,1.036,203.893,189.508,165.779
0.110,17.282,1.038,1.038,203.469,189.636,165.863
0.111,17.718,1.051,1.051,203.057,189.759,165.940
0.112,18.126,1.079,1.079,202.670,189.871,166.006
0.113,18.493,1.120,1.120,202.321,189.971,166.055
0.114,18.806,1.172,1.172,202.020,190.053,166.082
0.115,19.053,1.232,1.232,201.781,190.115,166.083
0.116,19.235,1.300,1.300,201.606,190.156,166.056
0.117,19.367,1.372,1.372,201.488,190.180,166.003
0.118,19.471,1.446,1.446,201.417,190.191,165.927
0.119,19.572,1.522,1.522,201.385,190.194,165.831
0.120,19.686,1.596,1.596,201.383,190.191,165.718
0.121,19.815,1.666,1.666,201.402,190.188,165.589
0.122,19.959,1.731,1.731,201.434,190.189,165.449
0.123,20.112,1.790,1.790,201.468,190.197,165.300
0.124,20.272,1.843,1.843,201.497,190.218,165.144
0.125,20.436,1.890,1.890,201.512,190.254,164.985
0.126,20.606,1.931,1.931,201.505,190.309,164.825
0.127,20.783,1.967,1.967,201.478,190.382,164.665
0.128,20.968,1.997,1.997,201.436,190.469,164.507
0.129,21.158,2.022,2.022,201.385,190.567,164.353
0.130,21.349,2.041,2.041,201.329,190.671,164.203
0.131,21.537,2.056,2.056,201.275,190.779,164.059
0.132,21.718,2.065,2.065,201.226,190.887,163.922
0.133,21.887,2.070,2.070,201.189,190.991,163.793
0.134,22.042,2.073,2.073,201.168,191.087,163.674
0.135,22.180,2.074,2.074,201.169,191.173,163.567
0.136,22.302,2.075,2.075,201.197,191.245,163.471
0.137,22.417,2.078,2.078,201.251,191.301,163.388
0.138,22.531,2.084,2.084,201.325,191.343,163.312
0.139,22.646,2.095,2.095,201.411,191.372,163.240
0.140,22.761,2.112,2.112,201.499,191.391,163.169
0.141,22.874,2.137,2.137,201.584,191.400,163.094
0.142,22.984,2.171,2.171,201.655,191.402,163.011
0.143,23.091,2.214,2.214,201.706,191.397,162.917
0.144,23.203,2.265,2.265,201.729,191.389,162.808
0.145,23.332,2.324,2.324,201.716,191.379,162.680
0.146,23.494,2.388,2.388,201.658,191.367,162.528
0.147,23.702,2.456,2.456,201.550,191.357,162.351
0.148,23.954,2.528,2.528,201.396,191.348,162.152
0.149,24.242,2.601,2.601,201.205,191.339,161.936
0.150,24.557,2.675,2.675,200.987,191.332,161.710
0.151,24.887,2.748,2.748,200.750,191.325,161.480
0.152,25.223,2.818,2.818,200.504,191.320,161.251
0.153,25.554,2.885,2.885,200.257,191.315,161.030
0.154,25.870,2.949,2.949,200.020,191.311,160.822
0.155,26.160,3.007,3.007,199.800,191.307,160.634
0.156,26.412,3.060,3.060,199.607,191.303,160.471
0.157,26.617,3.107,3.107,199.450,191.300,160.339
0.158,26.770,3.148,3.148,199.333,191.299,160.240
0.159,26.874,3.181,3.181,199.257,191.301,160.170
0.160,26.935,3.206,3.206,199.218,191.308,160.124
0.161,26.967,3.223,3.223,199.216,191.323,160.096
0.162,27.010,3.231,3.231,199.248,191.349,160.082
0.163,27.086,3.230,3.230,199.312,191.388,160.076
0.164,27.196,3.221,3.221,199.409,191.441,160.074
0.165,27.340,3.207,3.207,199.534,191.512,160.070
0.166,27.518,3.190,3.190,199.687,191.602,160.061
0.167,27.731,3.173,3.173,199.867,191.714,160.039
0.167,27.978,3.157,3.157,200.070,191.850,160.003
0.168,28.256,3.146,3.146,200.294,192.007,159.951
0.169,28.559,3.140,3.140,200.533,192.182,159.886
0.170,28.881,3.144,3.144,200.784,192.370,159.812
0.171,29.216,3.158,3.158,201.042,192.567,159.730
0.172,29.557,3.186,3.186,201.302,192.770,159.643
0.173,29.899,3.226,3.226,201.559,192.975,159.553
0.174,30.234,3.277,3.277,201.810,193.178,159.463
0.175,30.556,3.337,3.337,202.050,193.374,159.376
0.176,30.859,3.404,3.404,202.274,193.560,159.293
0.177,31.136,3.476,3.476,202.478,193.733,159.218
0.178,31.385,3.552,3.552,202.660,193.890,159.152
0.179,31.607,3.629,3.629,202.821,194.031,159.094
0.180,31.805,3.705,3.705,202.962,194.160,159.043
0.181,31.980,3.780,3.780,203.085,194.277,159.000
0.182,32.136,3.850,3.850,203.193,194.383,158.963
0.183,32.274,3.915,3.915,203.286,194.481,158.931
0.184,32.398,3.976,3.976,203.366,194.571,158.905
0.185,32.509,4.032,4.032,203.435,194.655,158.883
0.186,32.610,4.083,4.083,203.495,194.735,158.865
0.187,32.704,4.130,4.130,203.547,194.811,158.850
0.188,32.792,4.172,4.172,203.592,194.886,158.838
0.189,32.876,4.211,4.211,203.633,194.959,158.827
0.190,32.955,4.245,4.245,203.668,195.029,158.818
0.191,33.030,4.275,4.275,203.699,195.097,158.809
0.192,33.099,4.301,4.301,203.725,195.160,158.800
0.193,33.163,4.323,4.323,203.747,195.220,158.791
0.194,33.222,4.342,4.342,203.766,195.274,158.780
0.195,33.275,4.358,4.358,203.782,195.323,158.766
0.196,33.322,4.372,4.372,203.795,195.365,158.750
0.197,33.364,4.384,4.384,203.805,195.401,158.731
0.198,33.402,4.396,4.396,203.814,195.429,158.708
0.199,33.437,4.406,4.406,203.821,195.450,158.680
0.200,33.472,4.416,4.416,203.828,195.466,158.650
0.201,33.506,4.426,4.426,203.835,195.478,158.619
0.202,33.539,4.437,4.437,203.845,195.488,158.589
0.203,33.571,4.449,4.449,203.856,195.499,158.561
0.204,33.603,4.461,4.461,203.872,195.511,158.536
0.205,33.635,4.474,4.474,203.893,195.527,158.517
0.206,33.671,4.487,4.487,203.919,195.548,158.504
0.207,33.715,4.500,4.500,203.952,195.576,158.500
0.208,33.772,4.512,4.512,203.994,195.614,158.506
0.209,33.843,4.524,4.524,204.044,195.663,158.523
0.210,33.929,4.534,4.534,204.101,195.721,158.550
0.211,34.027,4.543,4.543,204.165,195.786,158.584
0.212,34.133,4.550,4.550,204.234,195.857,158.624
0.213,34.245,4.555,4.555,204.305,195.931,158.666
0.214,34.357,4.558,4.558,204.377,196.007,158.709
0.215,34.468,4.560,4.560,204.449,196.081,158.749
0.216,34.574,4.560,4.560,204.519,196.152,158.785
0.217,34.672,4.560,4.560,204.584,196.218,158.814
0.218,34.758,4.558,4.558,204.644,196.276,158.834
0.219,34.830,4.557,4.557,204.697,196.325,158.843
0.220,34.890,4.555,4.555,204.742,196.365,158.838
0.221,34.944,4.553,4.553,204.781,196.399,158.822
0.222,34.999,4.552,4.552,204.814,196.434,158.795
0.223,35.060,4.551,4.551,204.843,196.474,158.759
0.224,35.132,4.552,4.552,204.870,196.524,158.715
0.225,35.218,4.555,4.555,204.895,196.588,158.665
0.226,35.323,4.559,4.559,204.921,196.672,158.608
0.227,35.450,4.566,4.566,204.949,196.781,158.548
0.228,35.606,4.577,4.577,204.980,196.920,158.484
0.229,35.794,4.591,4.591,205.016,197.092,158.419
0.230,36.019,4.609,4.609,205.057,197.304,158.353
0.231,36.277,4.631,4.631,205.104,197.549,158.288
0.232,36.560,4.659,4.659,205.155,197.820,158.225
0.233,36.859,4.692,4.692,205.209,198.108,158.165
0.234,37.168,4.730,4.730,205.265,198.406,158.109
0.235,37.476,4.772,4.772,205.322,198.705,158.059
0.236,37.776,4.816,4.816,205.379,198.997,158.015
0.237,38.060,4.860,4.860,205.434,199.273,157.979
0.238,38.319,4.904,4.904,205.486,199.525,157.952
0.239,38.545,4.946,4.946,205.534,199.746,157.935
0.240,38.730,4.985,4.985,205.577,199.925,157.929
0.241,38.871,5.019,5.019,205.615,200.061,157.935
0.242,38.974,5.047,5.047,205.648,200.157,157.950
0.243,39.046,5.067,5.067,205.679,200.219,157.971
0.244,39.097,5.080,5.080,205.709,200.251,157.997
0.245,39.139,5.085,5.085,205.740,200.259,158.025
0.246,39.183,5.084,5.084,205.772,200.249,158.052
0.247,39.232,5.078,5.078,205.808,200.225,158.076
0.248,39.287,5.067,5.067,205.848,200.193,158.095
0.249,39.346,5.052,5.052,205.895,200.159,158.105
0.250,39.409,5.033,5.033,205.950,200.127,158.106
0.251,39.479,5.013,5.013,206.014,200.103,158.094
0.252,39.557,4.991,4.991,206.087,200.089,158.071
0.253,39.643,4.968,4.968,206.168,200.086,158.041
0.254,39.739,4.944,4.944,206.257,200.098,158.007
0.255,39.844,4.921,4.921,206.352,200.125,157.972
0.256,39.959,4.896,4.896,206.453,200.168,157.939
0.257,40.084,4.869,4.869,206.559,200.230,157.912
0.258,40.223,4.840,4.840,206.669,200.312,157.894
0.259,40.376,4.809,4.809,206.782,200.416,157.889
0.260,40.548,4.775,4.775,206.898,200.543,157.899
0.261,40.742,4.738,4.738,207.015,200.695,157.929
0.262,40.961,4.696,4.696,207.133,200.872,157.978
0.263,41.200,4.651,4.651,207.254,201.069,158.041
0.264,41.457,4.601,4.601,207.378,201.282,158.112
0.265,41.727,4.548,4.548,207.507,201.508,158.185
0.266,42.004,4.493,4.493,207.643,201.740,158.253
0.267,42.286,4.440,4.440,207.786,201.975,158.310
0.268,42.567,4.389,4.389,207.937,202.209,158.351
0.269,42.846,4.343,4.343,208.099,202.436,158.369
0.270,43.123,4.303,4.303,208.271,202.653,158.357
0.271,43.401,4.271,4.271,208.456,202.854,158.310
0.272,43.684,4.249,4.249,208.654,203.037,158.223
0.273,43.977,4.239,4.239,208.863,203.199,158.098
0.274,44.279,4.243,4.243,209.078,203.344,157.943
0.275,44.586,4.258,4.258,209.295,203.472,157.767
0.276,44.893,4.284,4.284,209.508,203.584,157.576
0.277,45.194,4.318,4.318,209.715,203.682,157.380
0.278,45.483,4.357,4.357,209.910,203.768,157.186
0.278,45.750,4.399,4.399,210.088,203.842,157.001
0.279,45.989,4.443,4.443,210.246,203.907,156.834
0.280,46.191,4.486,4.486,210.379,203.964,156.693
0.281,46.348,4.526,4.526,210.482,204.014,156.585
0.282,46.458,4.561,4.561,210.553,204.058,156.514
0.283,46.528,4.588,4.588,210.597,204.096,156.475
0.284,46.568,4.607,4.607,210.617,204.129,156.463
0.285,46.597,4.619,4.619,210.618,204.156,156.471
0.286,46.631,4.626,4.626,210.605,204.177,156.494
0.287,46.673,4.627,4.627,210.581,204.193,156.526
0.288,46.720,4.625,4.625,210.552,204.203,156.561
0.289,46.764,4.619,4.619,210.522,204.208,156.592
0.290,46.799,4.612,4.612,210.495,204.206,156.615
0.291,46.822,4.603,4.603,210.475,204.200,156.623
0.292,46.841,4.593,4.593,210.467,204.187,156.612
0.293,46.877,4.585,4.585,210.471,204.170,156.580
0.294,46.932,4.577,4.577,210.485,204.149,156.531
0.295,47.002,4.571,4.571,210.508,204.124,156.470
0.296,47.083,4.565,4.565,210.537,204.099,156.399
0.297,47.171,4.560,4.560,210.570,204.072,156.321
0.298,47.263,4.557,4.557,210.606,204.046,156.241
0.299,47.354,4.553,4.553,210.643,204.021,156.161
0.300,47.441,4.551,4.551,210.678,203.998,156.085
0.301,47.520,4.549,4.549,210.711,203.979,156.016
0.302,47.585,4.547,4.547,210.739,203.964,155.959
0.303,47.637,4.546,4.546,210.761,203.955,155.913
0.304,47.675,4.544,4.544,210.777,203.950,155.879
0.305,47.703,4.543,4.543,210.790,203.949,155.854
0.306,47.723,4.543,4.543,210.800,203.952,155.837
0.307,47.739,4.542,4.542,210.808,203.958,155.825
0.308,47.753,4.541,4.541,210.814,203.968,155.816
0.309,47.768,4.540,4.540,210.821,203.979,155.809
0.310,47.785,4.540,4.540,210.828,203.992,155.801
0.311,47.805,4.539,4.539,210.838,204.006,155.791
0.312,47.830,4.537,4.537,210.851,204.022,155.776
0.313,47.861,4.536,4.536,210.868,204.037,155.755
0.314,47.898,4.534,4.534,210.888,204.053,155.729
0.315,47.939,4.532,4.532,210.911,204.068,155.698
0.316,47.983,4.530,4.530,210.936,204.083,155.665
0.317,48.028,4.528,4.528,210.960,204.098,155.630
0.318,48.073,4.527,4.527,210.984,204.112,155.595
0.319,48.115,4.526,4.526,211.006,204.125,155.562
0.320,48.152,4.526,4.526,211.025,204.137,155.532
0.321,48.183,4.527,4.527,211.039,204.147,155.507
0.322,48.205,4.529,4.529,211.048,204.156,155.488
0.323,48.219,4.532,4.532,211.051,204.164,155.477
0.324,48.226,4.536,4.536,211.047,204.169,155.474
0.325,48.238,4.541,4.541,211.036,204.171,155.476
0.326,48.255,4.544,4.544,211.019,204.170,155.481
0.327,48.279,4.546,4.546,210.997,204.163,155.484
0.328,48.308,4.544,4.544,210.970,204.150,155.483
0.329,48.346,4.538,4.538,210.940,204.130,155.475
0.330,48.393,4.525,4.525,210.906,204.102,155.457
0.331,48.454,4.506,4.506,210.869,204.065,155.425
0.332,48.532,4.478,4.478,210.831,204.018,155.376
0.333,48.631,4.440,4.440,210.792,203.960,155.307
0.334,48.753,4.392,4.392,210.752,203.890,155.216
0.335,48.898,4.334,4.334,210.713,203.809,155.102
0.336,49.063,4.268,4.268,210.677,203.719,154.968
0.337,49.245,4.196,4.196,210.647,203.623,154.816
0.338,49.441,4.120,4.120,210.625,203.522,154.649
0.339,49.649,4.043,4.043,210.612,203.420,154.469
0.340,49.865,3.966,3.966,210.611,203.318,154.278
0.341,50.088,3.892,3.892,210.625,203.219,154.079
0.342,50.316,3.823,3.823,210.654,203.124,153.874
0.343,50.547,3.760,3.760,210.702,203.036,153.666
0.344,50.780,3.707,3.707,210.770,202.958,153.457
0.345,51.016,3.662,3.662,210.860,202.890,153.249
0.346,51.254,3.627,3.627,210.966,202.832,153.045
0.347,51.490,3.599,3.599,211.084,202.782,152.847
0.348,51.721,3.579,3.579,211.209,202.740,152.657
0.349,51.943,3.565,3.565,211.337,202.703,152.479
0.350,52.152,3.556,3.556,211.463,202.672,152.315
0.351,52.344,3.552,3.552,211.582,202.643,152.167
0.352,52.514,3.552,3.552,211.689,202.617,152.037
0.353,52.658,3.556,3.556,211.779,202.591,151.928
0.354,52.771,3.561,3.561,211.848,202.566,151.843
0.355,52.850,3.568,3.568,211.892,202.538,151.784
0.356,52.899,3.575,3.575,211.911,202.510,151.747
0.357,52.931,3.582,3.582,211.913,202.484,151.730
0.358,52.958,3.587,3.587,211.901,202.460,151.725
0.359,52.984,3.590,3.590,211.882,202.442,151.729
0.360,53.008,3.589,3.589,211.862,202.431,151.736
0.361,53.024,3.584,3.584,211.847,202.430,151.741
0.362,53.036,3.574,3.574,211.841,202.439,151.739
0.363,53.064,3.558,3.558,211.851,202.462,151.725
0.364,53.123,3.534,3.534,211.883,202.500,151.694
0.365,53.220,3.503,3.503,211.941,202.556,151.640
0.366,53.360,3.466,3.466,212.030,202.630,151.561
0.367,53.537,3.426,3.426,212.147,202.721,151.463
0.368,53.746,3.384,3.384,212.286,202.830,151.351
0.369,53.980,3.344,3.344,212.444,202.953,151.232
0.370,54.232,3.305,3.305,212.617,203.091,151.111
0.371,54.497,3.273,3.273,212.801,203.242,150.995
0.372,54.768,3.247,3.247,212.991,203.406,150.890
0.373,55.042,3.231,3.231,213.183,203.580,150.802
0.374,55.314,3.226,3.226,213.373,203.764,150.737
0.375,55.583,3.234,3.234,213.557,203.956,150.702
0.376,55.848,3.255,3.255,213.730,204.156,150.701
0.377,56.111,3.285,3.285,213.892,204.361,150.734
0.378,56.373,3.323,3.323,214.042,204.567,150.796
0.379,56.633,3.366,3.366,214.180,204.771,150.879
0.380,56.888,3.411,3.411,214.306,204.969,150.980
0.381,57.134,3.458,3.458,214.419,205.158,151.091
0.382,57.368,3.504,3.504,214.521,205.333,151.206
0.383,57.583,3.545,3.545,214.610,205.492,151.321
0.384,57.775,3.581,3.581,214.687,205.632,151.428
0.385,57.938,3.609,3.609,214.752,205.747,151.523
0.386,58.066,3.630,3.630,214.805,205.835,151.598
0.387,58.156,3.644,3.644,214.846,205.895,151.652
0.388,58.212,3.652,3.652,214.876,205.930,151.685
0.389,58.242,3.657,3.657,214.896,205.945,151.701
0.389,58.254,3.660,3.660,214.908,205.945,151.704
0.390,58.267,3.661,3.661,214.912,205.936,151.697
0.391,58.287,3.663,3.663,214.909,205.921,151.683
0.392,58.310,3.666,3.666,214.902,205.908,151.666
0.393,58.333,3.672,3.672,214.890,205.899,151.649
0.394,58.353,3.682,3.682,214.875,205.901,151.635
0.395,58.377,3.697,3.697,214.859,205.918,151.628
0.396,58.418,3.715,3.715,214.842,205.955,151.631
0.397,58.478,3.735,3.735,214.827,206.011,151.644
0.398,58.554,3.756,3.756,214.814,206.084,151.663
0.399,58.641,3.778,3.778,214.808,206.168,151.687
0.400,58.736,3.799,3.799,214.808,206.259,151.713
0.401,58.835,3.818,3.818,214.819,206.354,151.737
0.402,58.934,3.834,3.834,214.841,206.448,151.757
0.403,59.031,3.846,3.846,214.878,206.537,151.771
