"T","Distance","Radius","FreeRadius","X","Y","Z"
0.000,0.000,1.178,1.178,240.821,228.600,242.351
0.001,0.023,1.168,1.168,240.811,228.620,242.352
0.003,0.046,1.160,1.160,240.803,228.642,242.352
0.004,0.071,1.153,1.153,240.799,228.667,242.352
0.005,0.100,1.148,1.148,240.804,228.696,242.351
0.007,0.139,1.148,1.148,240.818,228.731,242.349
0.008,0.189,1.151,1.151,240.845,228.774,242.346
0.009,0.256,1.160,1.160,240.886,228.826,242.342
0.011,0.343,1.176,1.176,240.945,228.889,242.335
0.012,0.452,1.198,1.198,241.024,228.964,242.327
0.013,0.587,1.226,1.226,241.125,229.053,242.316
0.015,0.747,1.259,1.259,241.249,229.155,242.303
0.016,0.928,1.298,1.298,241.391,229.265,242.288
0.017,1.123,1.342,1.342,241.548,229.379,242.273
0.019,1.326,1.390,1.390,241.716,229.493,242.258
0.020,1.531,1.443,1.443,241.890,229.601,242.243
0.021,1.733,1.498,1.498,242.066,229.699,242.230
0.022,1.926,1.556,1.556,242.240,229.781,242.220
0.024,2.106,1.616,1.616,242.409,229.844,242.212
0.025,2.269,1.675,1.675,242.567,229.883,242.208
0.026,2.414,1.733,1.733,242.711,229.893,242.208
0.028,2.545,1.788,1.788,242.841,229.875,242.212
0.029,2.667,1.839,1.839,242.956,229.834,242.219
0.030,2.785,1.886,1.886,243.058,229.775,242.226
0.032,2.901,1.926,1.926,243.147,229.702,242.232
0.033,3.014,1.961,1.961,243.225,229.620,242.236
0.034,3.123,1.991,1.991,243.292,229.534,242.235
0.036,3.226,2.016,2.016,243.349,229.448,242.230
0.037,3.320,2.039,2.039,243.397,229.368,242.217
0.038,3.403,2.059,2.059,243.437,229.299,242.195
0.040,3.475,2.076,2.076,243.470,229.243,242.165
0.041,3.535,2.092,2.092,243.498,229.202,242.130
0.042,3.583,2.107,2.106,243.520,229.173,242.099
0.044,3.617,2.116,2.116,243.539,229.155,242.077
0.045,3.637,2.118,2.118,243.556,229.147,242.073
0.046,3.662,2.111,2.111,243.572,229.147,242.092
0.048,3.715,2.092,2.092,243.589,229.153,242.142
0.049,3.806,2.059,2.058,243.606,229.164,242.231
0.050,3.941,2.008,2.008,243.627,229.179,242.364
0.052,4.129,1.938,1.938,243.652,229.196,242.549
0.053,4.369,1.854,1.854,243.682,229.214,242.786
0.054,4.652,1.761,1.762,243.716,229.233,243.067
0.056,4.965,1.666,1.667,243.754,229.251,243.377
0.057,5.297,1.575,1.576,243.795,229.269,243.706
0.058,5.636,1.494,1.495,243.839,229.285,244.042
0.060,5.970,1.430,1.430,243.885,229.300,244.372
0.061,6.287,1.389,1.389,243.933,229.313,244.685
0.062,6.574,1.374,1.373,243.982,229.324,244.968
0.063,6.821,1.380,1.380,244.031,229.332,245.210
0.065,7.017,1.403,1.402,244.081,229.336,245.399
0.066,7.162,1.437,1.436,244.129,229.336,245.535
0.067,7.266,1.478,1.476,244.174,229.330,245.630
0.069,7.341,1.518,1.518,244.213,229.318,245.693
0.070,7.399,1.555,1.554,244.245,229.297,245.735
0.071,7.448,1.581,1.582,244.268,229.268,245.768
0.073,7.502,1.598,1.600,244.279,229.228,245.803
0.074,7.572,1.610,1.613,244.277,229.176,245.849
0.075,7.669,1.621,1.624,244.260,229.111,245.919
0.077,7.804,1.635,1.640,244.225,229.032,246.023
0.078,7.986,1.658,1.662,244.171,228.939,246.169
0.079,8.211,1.694,1.697,244.101,228.833,246.356
0.081,8.468,1.747,1.747,244.021,228.722,246.573
0.082,8.747,1.821,1.817,243.935,228.608,246.813
0.083,9.039,1.912,1.904,243.847,228.498,247.068
0.085,9.331,2.014,2.001,243.764,228.396,247.329
0.086,9.615,2.121,2.106,243.689,228.306,247.588
0.087,9.881,2.228,2.212,243.628,228.235,247.836
0.089,10.120,2.329,2.315,243.585,228.186,248.066
0.090,10.325,2.418,2.411,243.565,228.165,248.269
0.091,10.496,2.489,2.493,243.571,228.174,248.440
0.093,10.646,2.540,2.560,243.596,228.211,248.584
0.094,10.787,2.575,2.615,243.635,228.273,248.704
0.095,10.927,2.597,2.658,243.680,228.356,248.808
0.097,11.071,2.612,2.694,243.724,228.458,248.899
0.098,11.220,2.624,2.723,243.762,228.574,248.984
0.099,11.375,2.637,2.749,243.785,228.703,249.067
0.101,11.538,2.656,2.775,243.789,228.840,249.155
0.102,11.712,2.684,2.802,243.765,228.983,249.252
0.103,11.904,2.722,2.831,243.708,229.128,249.363
0.104,12.116,2.767,2.861,243.617,229.272,249.490
0.106,12.346,2.815,2.891,243.501,229.413,249.630
0.107,12.588,2.865,2.920,243.367,229.548,249.778
0.108,12.834,2.912,2.946,243.222,229.675,249.932
0.110,13.078,2.954,2.969,243.075,229.791,250.089
0.111,13.312,2.987,2.987,242.934,229.894,250.244
0.112,13.528,3.011,3.001,242.806,229.981,250.395
0.114,13.718,3.025,3.010,242.700,230.049,250.537
0.115,13.877,3.032,3.016,242.623,230.096,250.668
0.116,14.003,3.035,3.020,242.582,230.120,250.785
0.118,14.105,3.034,3.023,242.574,230.123,250.886
0.119,14.196,3.033,3.026,242.595,230.108,250.974
0.120,14.286,3.032,3.030,242.637,230.080,251.048
0.122,14.379,3.035,3.036,242.695,230.042,251.110
0.123,14.474,3.042,3.045,242.762,229.997,251.161
0.124,14.567,3.053,3.057,242.831,229.951,251.201
0.126,14.653,3.067,3.072,242.897,229.906,251.233
0.127,14.726,3.084,3.088,242.954,229.866,251.256
0.128,14.779,3.103,3.106,242.995,229.835,251.271
0.130,14.809,3.124,3.126,243.016,229.816,251.280
0.131,14.821,3.147,3.147,243.021,229.806,251.284
0.132,14.827,3.169,3.169,243.016,229.803,251.284
0.134,14.837,3.191,3.190,243.006,229.803,251.281
0.135,14.848,3.208,3.207,242.997,229.804,251.277
0.136,14.853,3.219,3.217,242.994,229.803,251.272
0.138,14.864,3.219,3.218,243.002,229.797,251.269
0.139,14.892,3.208,3.208,243.026,229.783,251.269
0.140,14.946,3.182,3.182,243.074,229.758,251.272
0.142,15.030,3.139,3.139,243.148,229.720,251.279
0.143,15.147,3.076,3.076,243.252,229.667,251.293
0.144,15.294,2.997,2.997,243.383,229.602,251.311
0.146,15.467,2.904,2.905,243.537,229.529,251.333
0.147,15.660,2.800,2.801,243.711,229.448,251.359
0.148,15.871,2.689,2.690,243.903,229.363,251.388
0.149,16.096,2.573,2.574,244.107,229.277,251.419
0.151,16.329,2.456,2.456,244.322,229.192,251.451
0.152,16.568,2.340,2.339,244.545,229.110,251.484
0.153,16.809,2.228,2.227,244.771,229.035,251.518
0.155,17.048,2.122,2.120,244.998,228.968,251.550
0.156,17.283,2.024,2.022,245.223,228.910,251.582
0.157,17.511,1.937,1.934,245.443,228.860,251.613
0.159,17.729,1.862,1.860,245.656,228.819,251.642
0.160,17.936,1.802,1.800,245.858,228.784,251.669
0.161,18.129,1.759,1.758,246.048,228.757,251.694
0.163,18.306,1.733,1.735,246.222,228.735,251.716
0.164,18.463,1.724,1.729,246.377,228.719,251.736
0.165,18.599,1.727,1.736,246.511,228.707,251.752
0.167,18.710,1.737,1.750,246.621,228.699,251.765
0.168,18.796,1.753,1.769,246.706,228.695,251.774
0.169,18.859,1.768,1.788,246.769,228.692,251.780
0.171,18.905,1.781,1.802,246.815,228.688,251.785
0.172,18.938,1.786,1.807,246.847,228.682,251.789
0.173,18.964,1.781,1.802,246.871,228.672,251.793
0.175,18.991,1.768,1.786,246.890,228.654,251.799
0.176,19.024,1.747,1.762,246.910,228.629,251.807
0.177,19.070,1.721,1.732,246.934,228.592,251.820
0.179,19.132,1.690,1.698,246.968,228.543,251.837
0.180,19.214,1.656,1.660,247.016,228.480,251.859
0.181,19.319,1.621,1.622,247.079,228.401,251.889
0.183,19.445,1.586,1.585,247.156,228.309,251.925
0.184,19.587,1.551,1.549,247.245,228.207,251.969
0.185,19.745,1.519,1.516,247.343,228.095,252.020
0.187,19.914,1.487,1.485,247.449,227.976,252.080
0.188,20.093,1.459,1.456,247.559,227.853,252.148
0.189,20.279,1.433,1.431,247.672,227.727,252.225
0.190,20.469,1.410,1.409,247.786,227.601,252.311
0.192,20.662,1.391,1.391,247.897,227.477,252.407
0.193,20.855,1.376,1.377,248.005,227.357,252.513
0.194,21.048,1.365,1.366,248.108,227.241,252.627
0.196,21.238,1.358,1.358,248.206,227.132,252.747
0.197,21.423,1.353,1.353,248.300,227.029,252.871
0.198,21.603,1.350,1.350,248.389,226.933,252.994
0.200,21.774,1.349,1.349,248.473,226.846,253.115
0.201,21.936,1.349,1.349,248.552,226.767,253.232
0.202,22.085,1.350,1.350,248.627,226.698,253.340
0.204,22.219,1.351,1.351,248.697,226.639,253.438
0.205,22.337,1.352,1.352,248.763,226.590,253.524
0.206,22.437,1.353,1.353,248.824,226.554,253.594
0.208,22.522,1.354,1.354,248.883,226.529,253.650
0.209,22.596,1.354,1.354,248.940,226.515,253.694
0.210,22.665,1.353,1.353,248.999,226.513,253.730
0.212,22.733,1.351,1.351,249.061,226.523,253.758
0.213,22.807,1.347,1.347,249.127,226.544,253.782
0.214,22.889,1.343,1.343,249.200,226.576,253.804
0.216,22.984,1.339,1.339,249.281,226.620,253.826
0.217,23.093,1.336,1.336,249.373,226.675,253.850
0.218,23.220,1.335,1.335,249.476,226.741,253.879
0.220,23.363,1.337,1.337,249.593,226.817,253.914
0.221,23.520,1.343,1.343,249.720,226.901,253.954
0.222,23.687,1.354,1.354,249.855,226.989,253.996
0.224,23.858,1.371,1.371,249.995,227.078,254.038
0.225,24.031,1.392,1.392,250.138,227.165,254.080
0.226,24.202,1.417,1.417,250.282,227.248,254.120
0.228,24.365,1.444,1.444,250.423,227.323,254.155
0.229,24.519,1.471,1.471,250.560,227.386,254.184
0.230,24.659,1.499,1.499,250.690,227.436,254.205
0.231,24.784,1.524,1.524,250.810,227.468,254.216
0.233,24.895,1.547,1.547,250.920,227.484,254.219
0.234,24.997,1.566,1.566,251.021,227.486,254.215
0.235,25.092,1.583,1.583,251.116,227.476,254.208
0.237,25.184,1.598,1.598,251.205,227.459,254.201
0.238,25.272,1.613,1.613,251.290,227.437,254.195
0.239,25.359,1.628,1.628,251.374,227.412,254.195
0.241,25.445,1.645,1.645,251.456,227.389,254.202
0.242,25.533,1.663,1.663,251.540,227.369,254.219
0.243,25.625,1.685,1.685,251.626,227.356,254.250
0.245,25.726,1.710,1.710,251.716,227.352,254.296
0.246,25.838,1.737,1.737,251.811,227.356,254.356
0.247,25.960,1.767,1.767,251.909,227.363,254.426
0.249,26.089,1.798,1.798,252.011,227.372,254.504
0.250,26.224,1.830,1.830,252.118,227.379,254.587
0.251,26.362,1.863,1.863,252.228,227.381,254.672
0.253,26.503,1.895,1.895,252.342,227.374,254.754
0.254,26.645,1.927,1.927,252.459,227.355,254.832
0.255,26.789,1.959,1.959,252.580,227.321,254.902
0.257,26.937,1.989,1.989,252.704,227.269,254.962
0.258,27.090,2.018,2.018,252.831,227.197,255.008
0.259,27.248,2.046,2.046,252.958,227.109,255.044
0.261,27.409,2.071,2.071,253.081,227.009,255.069
0.262,27.569,2.095,2.095,253.198,226.901,255.087
0.263,27.725,2.116,2.116,253.306,226.789,255.099
0.265,27.873,2.135,2.135,253.402,226.676,255.106
0.266,28.008,2.152,2.152,253.483,226.569,255.111
0.267,28.126,2.167,2.167,253.546,226.469,255.115
0.269,28.223,2.183,2.183,253.588,226.382,255.120
0.270,28.297,2.198,2.198,253.606,226.311,255.128
0.271,28.351,2.214,2.214,253.602,226.257,255.138
0.272,28.395,2.231,2.231,253.583,226.219,255.150
0.274,28.433,2.250,2.250,253.556,226.195,255.161
0.275,28.464,2.270,2.270,253.528,226.183,255.170
0.276,28.486,2.292,2.292,253.507,226.181,255.175
0.278,28.495,2.315,2.315,253.501,226.186,255.174
0.279,28.515,2.338,2.338,253.515,226.197,255.166
0.280,28.564,2.361,2.361,253.558,226.213,255.148
0.282,28.649,2.385,2.385,253.637,226.230,255.120
0.283,28.778,2.408,2.408,253.758,226.247,255.080
0.284,28.946,2.431,2.431,253.918,226.263,255.030
0.286,29.147,2.452,2.452,254.111,226.279,254.974
0.287,29.374,2.473,2.473,254.329,226.292,254.917
0.288,29.618,2.492,2.492,254.567,226.303,254.863
0.290,29.872,2.509,2.509,254.817,226.311,254.816
0.291,30.130,2.524,2.524,255.072,226.316,254.780
0.292,30.385,2.538,2.538,255.326,226.317,254.759
0.294,30.630,2.548,2.548,255.571,226.315,254.758
0.295,30.862,2.557,2.557,255.802,226.307,254.780
0.296,31.078,2.563,2.563,256.012,226.295,254.829
0.298,31.282,2.569,2.569,256.203,226.277,254.900
0.299,31.478,2.573,2.573,256.376,226.254,254.988
0.300,31.666,2.577,2.577,256.532,226.226,255.088
0.302,31.847,2.581,2.581,256.675,226.192,255.196
0.303,32.022,2.586,2.586,256.804,226.154,255.306
0.304,32.188,2.592,2.592,256.923,226.109,255.413
0.306,32.344,2.599,2.599,257.032,226.059,255.513
0.307,32.488,2.608,2.608,257.133,226.004,255.600
0.308,32.622,2.618,2.618,257.228,225.943,255.670
0.310,32.745,2.631,2.631,257.319,225.877,255.721
0.311,32.861,2.646,2.646,257.406,225.807,255.754
0.312,32.973,2.663,2.663,257.489,225.734,255.772
0.313,33.083,2.683,2.683,257.570,225.659,255.777
0.315,33.191,2.705,2.705,257.649,225.585,255.772
0.316,33.299,2.730,2.730,257.726,225.512,255.759
0.317,33.405,2.755,2.755,257.803,225.440,255.740
0.319,33.510,2.782,2.782,257.880,225.373,255.717
0.320,33.612,2.809,2.809,257.957,225.310,255.694
0.321,33.712,2.835,2.835,258.036,225.254,255.672
0.323,33.809,2.860,2.860,258.116,225.203,255.652
0.324,33.902,2.884,2.884,258.196,225.158,255.634
0.325,33.992,2.905,2.905,258.275,225.118,255.620
0.327,34.078,2.924,2.924,258.353,225.083,255.609
0.328,34.159,2.939,2.939,258.427,225.052,255.602
0.329,34.235,2.950,2.950,258.499,225.024,255.599
0.331,34.306,2.956,2.956,258.565,225.000,255.601
0.332,34.372,2.958,2.958,258.627,224.979,255.608
0.333,34.431,2.954,2.954,258.682,224.960,255.621
0.335,34.485,2.944,2.944,258.730,224.942,255.639
0.336,34.535,2.930,2.930,258.771,224.926,255.662
0.337,34.581,2.913,2.913,258.806,224.912,255.688
0.339,34.623,2.894,2.894,258.834,224.898,255.716
0.340,34.662,2.875,2.875,258.857,224.886,255.745
0.341,34.697,2.857,2.857,258.875,224.875,255.773
0.343,34.728,2.843,2.843,258.888,224.865,255.799
0.344,34.755,2.833,2.833,258.896,224.855,255.823
0.345,34.776,2.829,2.829,258.899,224.846,255.842
0.347,34.792,2.828,2.828,258.899,224.837,255.855
0.348,34.804,2.830,2.830,258.896,224.829,255.862
0.349,34.813,2.833,2.833,258.890,224.821,255.865
0.351,34.822,2.837,2.837,258.883,224.815,255.866
0.352,34.830,2.840,2.840,258.877,224.811,255.865
0.353,34.836,2.841,2.841,258.872,224.809,255.867
0.354,34.841,2.839,2.839,258.869,224.809,255.871
0.356,34.850,2.834,2.834,258.871,224.813,255.880
0.357,34.868,2.824,2.824,258.876,224.820,255.895
0.358,34.897,2.811,2.811,258.888,224.832,255.919
0.360,34.939,2.794,2.794,258.907,224.847,255.953
0.361,34.994,2.772,2.772,258.933,224.868,255.997
0.362,35.061,2.746,2.746,258.965,224.892,256.050
0.364,35.137,2.716,2.716,259.003,224.918,256.111
0.365,35.222,2.681,2.681,259.046,224.947,256.178
0.366,35.314,2.643,2.643,259.093,224.978,256.251
0.368,35.411,2.602,2.602,259.143,225.010,256.328
0.369,35.513,2.559,2.559,259.196,225.042,256.408
0.370,35.616,2.514,2.514,259.252,225.073,256.490
0.372,35.721,2.470,2.470,259.308,225.103,256.572
0.373,35.825,2.427,2.427,259.366,225.132,256.654
0.374,35.929,2.385,2.385,259.422,225.162,256.737
0.376,36.036,2.344,2.344,259.476,225.194,256.822
0.377,36.146,2.306,2.306,259.527,225.233,256.912
0.378,36.261,2.267,2.267,259.573,225.279,257.007
0.380,36.385,2.230,2.230,259.613,225.336,257.110
0.381,36.522,2.192,2.192,259.646,225.406,257.222
0.382,36.673,2.154,2.154,259.669,225.492,257.345
0.384,36.844,2.114,2.114,259.682,225.596,257.480
0.385,37.039,2.073,2.073,259.684,225.721,257.630
0.386,37.258,2.032,2.032,259.674,225.867,257.793
0.388,37.497,1.991,1.991,259.654,226.028,257.968
0.389,37.748,1.953,1.953,259.628,226.199,258.150
0.390,38.006,1.919,1.919,259.597,226.374,258.337
0.392,38.262,1.890,1.890,259.564,226.546,258.524
0.393,38.512,1.868,1.868,259.532,226.711,258.708
0.394,38.747,1.854,1.854,259.504,226.862,258.886
0.396,38.961,1.849,1.849,259.481,226.994,259.054
0.397,39.149,1.851,1.851,259.468,227.100,259.208
0.398,39.306,1.859,1.859,259.465,227.174,259.346
0.399,39.434,1.870,1.870,259.473,227.218,259.466
0.401,39.540,1.883,1.883,259.491,227.234,259.570
0.402,39.631,1.896,1.896,259.516,227.228,259.657
0.403,39.714,1.907,1.907,259.547,227.205,259.730
0.405,39.791,1.915,1.915,259.581,227.168,259.789
0.406,39.865,1.919,1.919,259.617,227.123,259.836
0.407,39.935,1.919,1.919,259.653,227.075,259.871
0.409,39.998,1.916,1.916,259.686,227.027,259.895
0.410,40.052,1.912,1.912,259.716,226.985,259.910
0.411,40.093,1.907,1.907,259.740,226.952,259.916
0.413,40.122,1.901,1.901,259.759,226.930,259.918
0.414,40.142,1.895,1.895,259.775,226.919,259.918
0.415,40.158,1.890,1.890,259.791,226.917,259.921
0.417,40.178,1.886,1.886,259.807,226.924,259.930
0.418,40.210,1.883,1.883,259.827,226.940,259.949
0.419,40.258,1.879,1.879,259.851,226.965,259.982
0.421,40.326,1.875,1.875,259.882,226.998,260.032
0.422,40.418,1.870,1.870,259.921,227.039,260.105
0.423,40.538,1.864,1.864,259.971,227.088,260.202
0.425,40.687,1.856,1.856,260.033,227.143,260.326
0.426,40.860,1.846,1.846,260.103,227.203,260.472
0.427,41.049,1.835,1.835,260.180,227.265,260.634
0.429,41.249,1.823,1.823,260.261,227.329,260.805
0.430,41.453,1.810,1.810,260.343,227.392,260.981
0.431,41.653,1.796,1.796,260.424,227.451,261.154
0.433,41.844,1.782,1.782,260.502,227.506,261.319
0.434,42.017,1.768,1.768,260.573,227.554,261.470
0.435,42.168,1.755,1.755,260.636,227.594,261.601
0.437,42.289,1.742,1.742,260.687,227.623,261.706
0.438,42.378,1.731,1.731,260.727,227.641,261.784
0.439,42.438,1.721,1.721,260.755,227.650,261.837
0.440,42.475,1.713,1.713,260.773,227.653,261.868
0.442,42.490,1.708,1.708,260.783,227.652,261.881
0.443,42.495,1.705,1.705,260.784,227.649,261.877
0.444,42.512,1.706,1.706,260.779,227.646,261.861
0.446,42.541,1.710,1.710,260.768,227.645,261.835
0.447,42.577,1.716,1.716,260.752,227.648,261.803
0.448,42.619,1.723,1.723,260.733,227.658,261.766
0.450,42.666,1.730,1.730,260.711,227.676,261.729
0.451,42.714,1.736,1.736,260.691,227.702,261.694
0.452,42.761,1.738,1.738,260.674,227.733,261.662
0.454,42.804,1.736,1.736,260.665,227.766,261.638
0.455,42.841,1.728,1.728,260.668,227.800,261.622
0.456,42.878,1.714,1.714,260.686,227.832,261.618
0.458,42.926,1.696,1.696,260.723,227.860,261.628
0.459,42.994,1.675,1.675,260.783,227.882,261.654
0.460,43.091,1.651,1.651,260.868,227.894,261.698
0.462,43.224,1.628,1.628,260.984,227.896,261.764
0.463,43.396,1.605,1.605,261.131,227.885,261.852
0.464,43.600,1.585,1.585,261.303,227.863,261.958
0.466,43.828,1.568,1.568,261.495,227.833,262.078
0.467,44.072,1.556,1.556,261.700,227.797,262.206
0.468,44.324,1.546,1.546,261.910,227.758,262.339
0.470,44.575,1.540,1.540,262.120,227.717,262.471
0.471,44.816,1.535,1.535,262.322,227.679,262.597
0.472,45.040,1.533,1.533,262.510,227.644,262.713
0.474,45.236,1.531,1.531,262.676,227.615,262.814
0.475,45.399,1.530,1.530,262.815,227.596,262.896
0.476,45.523,1.528,1.528,262.923,227.585,262.956
0.478,45.612,1.527,1.527,263.002,227.579,262.998
0.479,45.670,1.524,1.524,263.053,227.575,263.025
0.480,45.700,1.521,1.521,263.078,227.570,263.040
0.481,45.712,1.516,1.516,263.079,227.559,263.045
0.483,45.740,1.510,1.510,263.058,227.540,263.045
0.484,45.792,1.502,1.502,263.016,227.510,263.041
0.485,45.869,1.491,1.491,262.955,227.463,263.038
0.487,45.970,1.479,1.479,262.878,227.397,263.037
0.488,46.098,1.466,1.466,262.785,227.310,263.043
0.489,46.249,1.454,1.454,262.681,227.201,263.055
0.491,46.417,1.445,1.445,262.569,227.077,263.073
0.492,46.598,1.438,1.438,262.453,226.940,263.094
0.493,46.784,1.437,1.437,262.339,226.795,263.119
0.495,46.971,1.441,1.441,262.229,226.646,263.146
0.496,47.152,1.453,1.453,262.128,226.498,263.173
0.497,47.322,1.471,1.471,262.041,226.354,263.200
0.499,47.476,1.494,1.494,261.970,226.220,263.226
0.500,47.609,1.521,1.521,261.922,226.099,263.249
0.501,47.718,1.549,1.549,261.898,225.994,263.269
0.503,47.809,1.577,1.577,261.895,225.905,263.287
0.504,47.890,1.605,1.605,261.911,225.827,263.303
0.505,47.965,1.629,1.629,261.941,225.760,263.318
0.507,48.040,1.650,1.650,261.982,225.700,263.335
0.508,48.115,1.668,1.668,262.029,225.644,263.353
0.509,48.191,1.682,1.682,262.079,225.591,263.375
0.511,48.267,1.696,1.696,262.128,225.538,263.401
0.512,48.345,1.708,1.708,262.171,225.482,263.431
0.513,48.425,1.719,1.719,262.207,225.420,263.468
0.515,48.510,1.730,1.730,262.231,225.352,263.512
0.516,48.600,1.743,1.743,262.246,225.278,263.562
0.517,48.695,1.756,1.756,262.253,225.200,263.616
0.519,48.794,1.771,1.771,262.253,225.120,263.674
0.520,48.897,1.786,1.786,262.249,225.037,263.734
0.521,49.000,1.801,1.801,262.240,224.954,263.796
0.522,49.104,1.817,1.817,262.229,224.872,263.858
0.524,49.206,1.834,1.834,262.216,224.792,263.920
0.525,49.303,1.850,1.850,262.204,224.716,263.980
0.526,49.396,1.867,1.867,262.194,224.644,264.037
0.528,49.482,1.883,1.883,262.186,224.577,264.092
0.529,49.564,1.899,1.899,262.179,224.516,264.144
0.530,49.640,1.914,1.914,262.172,224.458,264.194
0.532,49.712,1.929,1.929,262.165,224.405,264.242
0.533,49.781,1.943,1.943,262.156,224.356,264.289
0.534,49.846,1.956,1.956,262.145,224.310,264.335
0.536,49.910,1.968,1.968,262.131,224.268,264.381
0.537,49.972,1.978,1.978,262.114,224.230,264.426
0.538,50.035,1.988,1.988,262.091,224.194,264.472
