"T","Distance","Radius","FreeRadius","X","Y","Z"
0.000,0.000,2.047,2.047,185.958,214.908,213.431
0.001,0.073,2.086,2.087,185.935,214.959,213.478
0.003,0.145,2.126,2.128,185.913,215.009,213.524
0.004,0.215,2.166,2.168,185.892,215.057,213.570
0.005,0.282,2.205,2.207,185.871,215.102,213.616
0.007,0.345,2.244,2.246,185.852,215.142,213.661
0.008,0.404,2.282,2.284,185.835,215.177,213.706
0.009,0.459,2.320,2.321,185.820,215.206,213.749
0.011,0.508,2.357,2.357,185.806,215.227,213.791
0.012,0.552,2.394,2.391,185.796,215.240,213.833
0.013,0.593,2.428,2.423,185.789,215.243,213.872
0.015,0.632,2.459,2.453,185.785,215.237,213.911
0.016,0.671,2.487,2.480,185.783,215.225,213.947
0.018,0.709,2.511,2.504,185.784,215.210,213.982
0.019,0.745,2.529,2.525,185.787,215.195,214.016
0.020,0.779,2.542,2.542,185.792,215.184,214.047
0.022,0.809,2.549,2.556,185.798,215.180,214.076
0.023,0.837,2.551,2.567,185.806,215.187,214.103
0.024,0.870,2.552,2.577,185.813,215.208,214.127
0.026,0.915,2.553,2.587,185.821,215.246,214.149
0.027,0.977,2.557,2.600,185.829,215.304,214.169
0.028,1.058,2.567,2.616,185.837,215.383,214.185
0.030,1.154,2.584,2.637,185.844,215.478,214.199
0.031,1.262,2.612,2.664,185.850,215.586,214.209
0.032,1.379,2.649,2.697,185.856,215.702,214.215
0.034,1.501,2.693,2.735,185.861,215.824,214.217
0.035,1.624,2.741,2.775,185.865,215.947,214.214
0.036,1.744,2.790,2.815,185.868,216.066,214.205
0.038,1.858,2.838,2.853,185.869,216.180,214.192
0.039,1.963,2.881,2.888,185.869,216.283,214.172
0.040,2.055,2.917,2.917,185.867,216.372,214.147
0.042,2.137,2.944,2.939,185.865,216.447,214.116
0.043,2.210,2.962,2.955,185.861,216.511,214.080
0.045,2.278,2.973,2.965,185.857,216.565,214.040
0.046,2.341,2.978,2.971,185.852,216.612,213.997
0.047,2.403,2.978,2.974,185.849,216.654,213.952
0.049,2.463,2.976,2.974,185.845,216.692,213.906
0.050,2.523,2.972,2.972,185.843,216.730,213.860
0.051,2.582,2.968,2.969,185.843,216.768,213.814
0.053,2.643,2.965,2.967,185.844,216.809,213.769
0.054,2.706,2.962,2.964,185.848,216.855,213.727
0.055,2.770,2.961,2.963,185.854,216.904,213.686
0.057,2.836,2.961,2.962,185.862,216.957,213.648
0.058,2.903,2.963,2.964,185.873,217.012,213.611
0.059,2.970,2.967,2.967,185.886,217.068,213.575
0.061,3.038,2.973,2.973,185.903,217.123,213.541
0.062,3.105,2.981,2.981,185.922,217.178,213.507
0.063,3.170,2.992,2.992,185.943,217.230,213.474
0.065,3.234,3.005,3.004,185.968,217.280,213.442
0.066,3.296,3.019,3.019,185.996,217.325,213.410
0.067,3.355,3.035,3.035,186.026,217.365,213.378
0.069,3.413,3.052,3.051,186.057,217.402,213.347
0.070,3.468,3.069,3.069,186.088,217.437,213.318
0.072,3.520,3.087,3.087,186.117,217.470,213.290
0.073,3.569,3.104,3.105,186.144,217.502,213.265
0.074,3.614,3.123,3.123,186.165,217.535,213.243
0.076,3.657,3.141,3.141,186.181,217.570,213.224
0.077,3.698,3.159,3.159,186.189,217.608,213.209
0.078,3.740,3.177,3.177,186.188,217.649,213.200
0.080,3.788,3.195,3.195,186.177,217.695,213.195
0.081,3.843,3.213,3.213,186.156,217.746,213.194
0.082,3.904,3.231,3.231,186.128,217.800,213.197
0.084,3.969,3.248,3.248,186.096,217.857,213.200
0.085,4.035,3.262,3.262,186.062,217.913,213.203
0.086,4.099,3.273,3.273,186.030,217.969,213.202
0.088,4.159,3.280,3.280,186.002,218.022,213.197
0.089,4.214,3.281,3.281,185.981,218.071,213.186
0.090,4.264,3.277,3.277,185.969,218.116,213.166
0.092,4.312,3.265,3.265,185.970,218.153,213.136
0.093,4.366,3.246,3.246,185.985,218.183,213.094
0.094,4.432,3.220,3.220,186.015,218.205,213.039
0.096,4.515,3.187,3.187,186.055,218.223,212.969
0.097,4.613,3.147,3.147,186.103,218.239,212.884
0.099,4.728,3.100,3.100,186.155,218.253,212.783
0.100,4.860,3.047,3.047,186.210,218.269,212.664
0.101,5.009,2.988,2.988,186.264,218.288,212.526
0.103,5.176,2.923,2.923,186.314,218.313,212.369
0.104,5.362,2.855,2.855,186.358,218.345,212.191
0.105,5.569,2.787,2.787,186.392,218.387,211.991
0.107,5.798,2.721,2.721,186.413,218.440,211.770
0.108,6.044,2.661,2.661,186.424,218.502,211.532
0.109,6.300,2.609,2.609,186.426,218.570,211.285
0.111,6.561,2.568,2.568,186.419,218.641,211.034
0.112,6.820,2.540,2.540,186.406,218.713,210.786
0.113,7.068,2.524,2.524,186.387,218.783,210.548
0.115,7.301,2.519,2.519,186.365,218.847,210.326
0.116,7.509,2.521,2.521,186.341,218.904,210.127
0.117,7.687,2.528,2.528,186.316,218.950,209.956
0.119,7.828,2.538,2.538,186.292,218.982,209.822
0.120,7.929,2.547,2.547,186.270,219.000,209.725
0.121,7.996,2.553,2.553,186.251,219.006,209.661
0.123,8.038,2.554,2.554,186.238,219.002,209.621
0.124,8.062,2.551,2.551,186.230,218.992,209.601
0.126,8.079,2.542,2.542,186.230,218.977,209.592
0.127,8.097,2.528,2.528,186.238,218.961,209.588
0.128,8.121,2.510,2.510,186.256,218.947,209.582
0.130,8.155,2.486,2.486,186.285,218.936,209.568
0.131,8.206,2.458,2.458,186.326,218.932,209.538
0.132,8.282,2.425,2.425,186.381,218.938,209.486
0.134,8.383,2.389,2.389,186.448,218.953,209.412
0.135,8.504,2.350,2.350,186.523,218.975,209.320
0.136,8.638,2.311,2.311,186.603,219.004,209.215
0.138,8.780,2.273,2.273,186.684,219.036,209.103
0.139,8.923,2.238,2.238,186.762,219.069,208.989
0.140,9.059,2.207,2.207,186.834,219.101,208.878
0.142,9.183,2.181,2.181,186.896,219.131,208.775
0.143,9.288,2.162,2.162,186.943,219.156,208.685
0.144,9.367,2.146,2.146,186.973,219.175,208.614
0.146,9.417,2.132,2.132,186.982,219.184,208.565
0.147,9.446,2.117,2.117,186.975,219.185,208.537
0.148,9.468,2.098,2.098,186.959,219.177,208.524
0.150,9.492,2.073,2.073,186.942,219.161,208.521
0.151,9.517,2.039,2.039,186.931,219.138,208.521
0.152,9.548,1.995,1.995,186.936,219.107,208.519
0.154,9.594,1.941,1.941,186.963,219.071,208.510
0.155,9.669,1.881,1.881,187.021,219.029,208.487
0.157,9.784,1.819,1.819,187.117,218.982,208.445
0.158,9.949,1.759,1.759,187.258,218.930,208.379
0.159,10.171,1.704,1.704,187.451,218.874,208.284
0.161,10.443,1.658,1.658,187.689,218.817,208.165
0.162,10.753,1.624,1.624,187.960,218.760,208.027
0.163,11.090,1.605,1.605,188.257,218.707,207.875
0.165,11.443,1.598,1.598,188.568,218.659,207.716
0.166,11.801,1.602,1.602,188.885,218.620,207.555
0.167,12.152,1.614,1.614,189.198,218.591,207.398
0.169,12.485,1.632,1.632,189.497,218.576,207.251
0.170,12.791,1.654,1.654,189.772,218.576,207.119
0.171,13.057,1.677,1.677,190.014,218.594,207.008
0.173,13.281,1.700,1.700,190.217,218.631,206.921
0.174,13.468,1.722,1.722,190.384,218.683,206.856
0.175,13.626,1.743,1.743,190.521,218.747,206.811
0.177,13.760,1.763,1.763,190.631,218.820,206.783
0.178,13.878,1.782,1.782,190.717,218.898,206.770
0.179,13.983,1.800,1.800,190.786,218.978,206.769
0.181,14.078,1.818,1.818,190.840,219.056,206.778
0.182,14.164,1.835,1.835,190.884,219.128,206.794
0.184,14.241,1.852,1.852,190.922,219.192,206.815
0.185,14.309,1.867,1.867,190.958,219.244,206.839
0.186,14.367,1.880,1.880,190.996,219.282,206.862
0.188,14.420,1.891,1.891,191.034,219.310,206.884
0.189,14.469,1.898,1.898,191.075,219.329,206.904
0.190,14.516,1.902,1.902,191.118,219.341,206.918
0.192,14.563,1.901,1.901,191.164,219.348,206.926
0.193,14.614,1.896,1.896,191.214,219.353,206.926
0.194,14.669,1.886,1.886,191.269,219.356,206.917
0.196,14.732,1.874,1.874,191.328,219.360,206.896
0.197,14.806,1.862,1.862,191.394,219.368,206.863
0.198,14.893,1.852,1.852,191.465,219.380,206.815
0.200,14.993,1.844,1.844,191.543,219.395,206.754
0.201,15.104,1.841,1.841,191.626,219.410,206.681
0.202,15.227,1.845,1.845,191.716,219.422,206.599
0.204,15.358,1.855,1.855,191.811,219.426,206.510
0.205,15.497,1.870,1.870,191.913,219.421,206.414
0.206,15.644,1.887,1.887,192.019,219.401,206.315
0.208,15.799,1.904,1.904,192.132,219.365,206.214
0.209,15.964,1.919,1.919,192.249,219.308,206.114
0.211,16.140,1.929,1.929,192.371,219.228,206.015
0.212,16.330,1.931,1.931,192.499,219.123,205.921
0.213,16.534,1.925,1.925,192.632,218.996,205.834
0.215,16.747,1.909,1.909,192.770,218.854,205.756
0.216,16.966,1.886,1.886,192.914,218.701,205.690
0.217,17.188,1.856,1.856,193.063,218.545,205.639
0.219,17.410,1.821,1.821,193.219,218.391,205.605
0.220,17.630,1.782,1.782,193.381,218.244,205.592
0.221,17.845,1.740,1.740,193.549,218.110,205.601
0.223,18.058,1.697,1.697,193.725,217.994,205.635
0.224,18.271,1.653,1.653,193.907,217.904,205.698
0.225,18.489,1.609,1.609,194.096,217.841,205.787
0.227,18.713,1.565,1.565,194.290,217.804,205.893
0.228,18.943,1.520,1.520,194.489,217.792,206.008
0.229,19.174,1.476,1.476,194.691,217.802,206.120
0.231,19.404,1.433,1.433,194.894,217.833,206.221
0.232,19.628,1.390,1.390,195.098,217.882,206.301
0.233,19.848,1.348,1.348,195.302,217.947,206.349
0.235,20.065,1.308,1.308,195.504,218.027,206.355
0.236,20.288,1.269,1.269,195.703,218.120,206.311
0.238,20.532,1.233,1.233,195.897,218.223,206.206
0.239,20.806,1.201,1.201,196.086,218.334,206.041
0.240,21.111,1.171,1.171,196.270,218.449,205.827
0.242,21.440,1.146,1.146,196.447,218.564,205.575
0.243,21.786,1.124,1.124,196.617,218.676,205.295
0.244,22.141,1.108,1.108,196.780,218.780,204.998
0.246,22.493,1.098,1.098,196.935,218.875,204.696
0.247,22.834,1.093,1.093,197.081,218.954,204.399
0.248,23.152,1.095,1.095,197.218,219.016,204.118
0.250,23.439,1.104,1.104,197.346,219.057,203.864
0.251,23.686,1.121,1.121,197.463,219.072,203.647
0.252,23.895,1.145,1.145,197.570,219.064,203.468
0.254,24.073,1.178,1.178,197.667,219.036,203.322
0.255,24.226,1.217,1.217,197.754,218.993,203.204
0.256,24.359,1.261,1.261,197.831,218.938,203.110
0.258,24.477,1.306,1.306,197.899,218.876,203.036
0.259,24.584,1.351,1.351,197.958,218.809,202.977
0.260,24.680,1.392,1.392,198.007,218.743,202.929
0.262,24.765,1.428,1.428,198.048,218.680,202.887
0.263,24.840,1.457,1.457,198.079,218.625,202.847
0.265,24.906,1.476,1.476,198.102,218.581,202.805
0.266,24.965,1.489,1.488,198.119,218.546,202.760
0.267,25.022,1.494,1.494,198.129,218.519,202.711
0.269,25.080,1.494,1.494,198.136,218.498,202.657
0.270,25.142,1.490,1.490,198.141,218.480,202.598
0.271,25.208,1.482,1.482,198.146,218.465,202.534
0.273,25.281,1.473,1.473,198.151,218.449,202.462
0.274,25.362,1.462,1.462,198.159,218.432,202.384
0.275,25.451,1.452,1.452,198.171,218.410,202.298
0.277,25.551,1.444,1.444,198.189,218.383,202.204
0.278,25.661,1.439,1.440,198.214,218.350,202.102
0.279,25.779,1.439,1.440,198.246,218.315,201.993
0.281,25.902,1.446,1.447,198.284,218.283,201.881
0.282,26.027,1.461,1.461,198.327,218.258,201.767
0.283,26.151,1.485,1.485,198.377,218.245,201.653
0.285,26.275,1.519,1.518,198.432,218.249,201.542
0.286,26.399,1.562,1.560,198.492,218.273,201.436
0.287,26.528,1.612,1.610,198.556,218.322,201.337
0.289,26.666,1.669,1.667,198.625,218.401,201.247
0.290,26.821,1.731,1.729,198.698,218.514,201.169
0.291,26.998,1.796,1.795,198.775,218.658,201.102
0.293,27.191,1.865,1.865,198.857,218.823,201.044
0.294,27.393,1.935,1.937,198.945,218.998,200.995
0.296,27.596,2.005,2.009,199.040,219.173,200.951
0.297,27.794,2.070,2.078,199.142,219.337,200.911
0.298,27.979,2.130,2.142,199.253,219.480,200.872
0.300,28.147,2.181,2.197,199.373,219.591,200.834
0.301,28.300,2.221,2.241,199.504,219.661,200.794
0.302,28.449,2.247,2.271,199.645,219.678,200.750
0.304,28.616,2.257,2.285,199.798,219.633,200.700
0.305,28.815,2.250,2.282,199.960,219.532,200.645
0.306,29.045,2.232,2.267,200.127,219.386,200.586
0.308,29.299,2.205,2.243,200.296,219.206,200.525
0.309,29.568,2.174,2.214,200.463,219.005,200.462
0.310,29.841,2.143,2.184,200.625,218.794,200.400
0.312,30.107,2.116,2.156,200.777,218.584,200.340
0.313,30.353,2.096,2.134,200.916,218.389,200.282
0.314,30.569,2.086,2.121,201.037,218.219,200.230
0.316,30.742,2.087,2.116,201.138,218.086,200.183
0.317,30.865,2.094,2.119,201.216,217.999,200.143
0.318,30.945,2.108,2.126,201.272,217.953,200.110
0.320,30.993,2.125,2.137,201.310,217.939,200.083
0.321,31.025,2.144,2.150,201.331,217.950,200.062
0.323,31.058,2.162,2.164,201.339,217.977,200.046
0.324,31.095,2.177,2.176,201.337,218.012,200.034
0.325,31.132,2.189,2.186,201.327,218.047,200.027
0.327,31.162,2.198,2.194,201.313,218.074,200.023
0.328,31.182,2.203,2.199,201.296,218.084,200.022
0.329,31.203,2.205,2.202,201.281,218.070,200.023
0.331,31.248,2.205,2.202,201.268,218.027,200.026
0.332,31.318,2.201,2.200,201.258,217.958,200.030
0.333,31.409,2.195,2.195,201.251,217.867,200.032
0.335,31.517,2.186,2.187,201.247,217.759,200.032
0.336,31.639,2.176,2.177,201.244,217.637,200.027
0.337,31.771,2.164,2.166,201.244,217.506,200.017
0.339,31.909,2.153,2.154,201.247,217.369,200.001
0.340,32.049,2.141,2.142,201.251,217.231,199.976
0.341,32.189,2.131,2.131,201.257,217.095,199.942
0.343,32.326,2.122,2.122,201.264,216.966,199.897
0.344,32.460,2.116,2.116,201.273,216.845,199.841
0.345,32.590,2.113,2.113,201.284,216.733,199.775
0.347,32.719,2.113,2.112,201.296,216.628,199.701
0.348,32.846,2.115,2.115,201.310,216.532,199.620
0.350,32.971,2.120,2.119,201.325,216.442,199.533
0.351,33.095,2.127,2.127,201.342,216.360,199.442
0.352,33.217,2.136,2.136,201.359,216.285,199.348
0.354,33.336,2.148,2.148,201.379,216.216,199.252
0.355,33.453,2.162,2.162,201.399,216.154,199.156
0.356,33.566,2.178,2.178,201.421,216.097,199.061
0.358,33.675,2.195,2.195,201.443,216.046,198.967
0.359,33.779,2.212,2.212,201.466,216.001,198.876
0.360,33.877,2.229,2.229,201.488,215.960,198.789
0.362,33.970,2.246,2.246,201.508,215.925,198.706
0.363,34.056,2.261,2.261,201.527,215.893,198.628
0.364,34.134,2.275,2.275,201.542,215.866,198.556
0.366,34.205,2.287,2.287,201.554,215.842,198.491
0.367,34.267,2.297,2.297,201.562,215.822,198.433
0.368,34.319,2.306,2.306,201.565,215.804,198.384
0.370,34.363,2.314,2.314,201.562,215.790,198.343
0.371,34.401,2.321,2.321,201.556,215.776,198.308
0.372,34.436,2.326,2.326,201.546,215.761,198.278
0.374,34.470,2.331,2.331,201.535,215.744,198.250
0.375,34.508,2.336,2.336,201.524,215.722,198.221
0.377,34.552,2.341,2.341,201.515,215.695,198.189
0.378,34.604,2.348,2.348,201.508,215.659,198.151
0.379,34.668,2.358,2.358,201.505,215.614,198.106
0.381,34.747,2.373,2.373,201.509,215.557,198.050
0.382,34.846,2.394,2.394,201.519,215.487,197.981
0.383,34.964,2.421,2.421,201.536,215.404,197.899
0.385,35.098,2.456,2.456,201.560,215.310,197.806
0.386,35.244,2.498,2.498,201.589,215.209,197.705
0.387,35.398,2.543,2.543,201.621,215.104,197.598
0.389,35.555,2.589,2.589,201.655,214.997,197.488
0.390,35.711,2.632,2.632,201.688,214.892,197.378
0.391,35.860,2.668,2.668,201.721,214.793,197.271
0.393,36.000,2.695,2.695,201.751,214.701,197.169
0.394,36.126,2.709,2.709,201.777,214.621,197.076
0.395,36.233,2.709,2.709,201.797,214.556,196.994
0.397,36.321,2.697,2.697,201.810,214.507,196.922
0.398,36.393,2.677,2.677,201.817,214.474,196.857
0.399,36.456,2.653,2.653,201.817,214.460,196.797
0.401,36.517,2.629,2.629,201.809,214.463,196.736
0.402,36.587,2.607,2.607,201.795,214.484,196.672
0.404,36.671,2.593,2.593,201.772,214.525,196.600
0.405,36.777,2.590,2.590,201.743,214.585,196.519
0.406,36.907,2.597,2.597,201.705,214.665,196.423
0.408,37.065,2.613,2.613,201.659,214.765,196.310
0.409,37.253,2.635,2.635,201.605,214.886,196.176
0.410,37.467,2.662,2.662,201.544,215.024,196.025
0.412,37.697,2.691,2.691,201.478,215.173,195.863
0.413,37.936,2.719,2.719,201.410,215.328,195.694
0.414,38.175,2.745,2.745,201.340,215.483,195.526
0.416,38.406,2.767,2.767,201.272,215.633,195.364
0.417,38.620,2.785,2.785,201.206,215.771,195.215
0.418,38.809,2.799,2.799,201.145,215.892,195.083
0.420,38.965,2.809,2.809,201.092,215.991,194.974
0.421,39.080,2.814,2.814,201.047,216.062,194.896
0.422,39.149,2.816,2.816,201.012,216.102,194.851
0.424,39.182,2.815,2.815,200.987,216.115,194.834
0.425,39.199,2.809,2.809,200.971,216.110,194.836
0.426,39.221,2.802,2.802,200.963,216.095,194.851
0.428,39.247,2.796,2.796,200.962,216.077,194.868
0.429,39.266,2.793,2.793,200.967,216.064,194.882
0.430,39.277,2.795,2.795,200.977,216.063,194.883
0.432,39.308,2.806,2.806,200.992,216.083,194.864
0.433,39.377,2.828,2.828,201.009,216.131,194.817
0.435,39.497,2.864,2.864,201.028,216.214,194.733
0.436,39.671,2.914,2.914,201.049,216.336,194.610
0.437,39.891,2.977,2.977,201.071,216.489,194.455
0.439,40.144,3.049,3.049,201.093,216.666,194.274
0.440,40.420,3.127,3.127,201.114,216.857,194.076
0.441,40.708,3.208,3.208,201.134,217.054,193.868
0.443,40.995,3.290,3.290,201.153,217.250,193.658
0.444,41.272,3.368,3.368,201.170,217.436,193.454
0.445,41.527,3.440,3.440,201.184,217.604,193.263
0.447,41.749,3.505,3.505,201.194,217.746,193.092
0.448,41.927,3.562,3.562,201.201,217.853,192.950
0.449,42.059,3.611,3.611,201.204,217.924,192.839
0.451,42.153,3.652,3.652,201.204,217.964,192.754
0.452,42.216,3.685,3.685,201.201,217.979,192.692
0.453,42.259,3.709,3.709,201.195,217.974,192.650
0.455,42.292,3.723,3.723,201.189,217.953,192.625
0.456,42.326,3.729,3.729,201.182,217.923,192.612
0.457,42.362,3.727,3.727,201.174,217.888,192.607
0.459,42.396,3.721,3.721,201.167,217.855,192.608
0.460,42.425,3.713,3.713,201.161,217.827,192.611
0.462,42.442,3.704,3.704,201.157,217.811,192.612
0.463,42.449,3.696,3.696,201.154,217.805,192.609
0.464,42.457,3.693,3.693,201.153,217.807,192.601
0.466,42.474,3.695,3.695,201.153,217.816,192.587
0.467,42.499,3.704,3.704,201.155,217.827,192.565
0.468,42.532,3.717,3.717,201.158,217.840,192.534
0.470,42.574,3.735,3.735,201.161,217.851,192.493
0.471,42.627,3.756,3.756,201.165,217.857,192.441
0.472,42.691,3.780,3.780,201.170,217.857,192.377
0.474,42.771,3.805,3.805,201.176,217.848,192.298
0.475,42.866,3.831,3.831,201.181,217.828,192.205
0.476,42.976,3.857,3.857,201.186,217.798,192.099
0.478,43.099,3.882,3.882,201.189,217.762,191.982
0.479,43.231,3.907,3.907,201.190,217.721,191.857
0.480,43.369,3.931,3.931,201.188,217.678,191.725
0.482,43.512,3.953,3.953,201.182,217.635,191.589
0.483,43.657,3.974,3.974,201.170,217.595,191.450
0.484,43.801,3.992,3.992,201.153,217.561,191.311
0.486,43.942,4.008,4.008,201.128,217.534,191.175
0.487,44.079,4.021,4.021,201.096,217.517,191.043
0.489,44.212,4.033,4.033,201.056,217.511,190.916
0.490,44.340,4.042,4.042,201.010,217.514,190.797
0.491,44.462,4.049,4.049,200.960,217.525,190.686
0.493,44.578,4.054,4.054,200.907,217.541,190.585
0.494,44.685,4.057,4.057,200.853,217.561,190.494
0.495,44.783,4.058,4.058,200.801,217.583,190.414
0.497,44.870,4.058,4.058,200.751,217.604,190.347
0.498,44.942,4.057,4.057,200.706,217.623,190.293
0.499,44.999,4.054,4.054,200.668,217.638,190.254
0.501,45.038,4.051,4.051,200.638,217.646,190.230
0.502,45.062,4.046,4.046,200.616,217.649,190.220
0.503,45.077,4.040,4.040,200.602,217.648,190.219
0.505,45.086,4.034,4.034,200.593,217.644,190.221
0.506,45.093,4.027,4.027,200.589,217.639,190.223
0.507,45.098,4.019,4.019,200.588,217.637,190.219
0.509,45.113,4.011,4.011,200.589,217.637,190.204
0.510,45.144,4.004,4.004,200.589,217.643,190.174
0.511,45.197,3.997,3.997,200.589,217.656,190.122
0.513,45.277,3.990,3.990,200.586,217.679,190.046
0.514,45.388,3.984,3.984,200.579,217.712,189.939
0.516,45.529,3.979,3.979,200.569,217.755,189.806
0.517,45.693,3.976,3.976,200.554,217.808,189.651
0.518,45.873,3.974,3.974,200.537,217.867,189.482
0.520,46.064,3.974,3.974,200.517,217.931,189.303
0.521,46.259,3.976,3.976,200.495,218.000,189.122
0.522,46.452,3.981,3.981,200.471,218.070,188.943
0.524,46.638,3.989,3.989,200.446,218.141,188.774
0.525,46.809,4.000,4.000,200.420,218.211,188.620
0.526,46.960,4.015,4.015,200.394,218.278,188.487
0.528,47.087,4.031,4.031,200.368,218.340,188.379
0.529,47.192,4.046,4.046,200.341,218.398,188.296
0.530,47.278,4.059,4.059,200.313,218.451,188.234
0.532,47.349,4.066,4.066,200.283,218.498,188.190
0.533,47.410,4.066,4.066,200.251,218.540,188.161
0.534,47.463,4.057,4.057,200.215,218.576,188.144
0.536,47.513,4.035,4.035,200.176,218.606,188.136
0.537,47.562,4.001,4.001,200.133,218.629,188.134
0.538,47.613,3.958,3.958,200.085,218.646,188.134
0.540,47.667,3.912,3.912,200.032,218.655,188.135
0.541,47.725,3.866,3.866,199.974,218.658,188.133
0.543,47.783,3.825,3.825,199.916,218.656,188.129
0.544,47.835,3.793,3.793,199.864,218.653,188.123
0.545,47.878,3.775,3.775,199.822,218.649,188.116
0.547,47.906,3.773,3.773,199.795,218.647,188.108
0.548,47.917,3.785,3.785,199.789,218.650,188.099
0.549,47.941,3.805,3.805,199.808,218.660,188.090
0.551,47.994,3.828,3.828,199.858,218.679,188.081
