"T","Distance","Radius","FreeRadius","X","Y","Z"
0.000,0.000,2.047,2.047,185.958,214.908,213.431
0.002,0.072,2.085,2.085,185.935,214.958,213.477
0.003,0.144,2.124,2.124,185.914,215.008,213.524
0.005,0.213,2.163,2.162,185.892,215.056,213.569
0.007,0.280,2.202,2.201,185.872,215.101,213.615
0.009,0.343,2.241,2.241,185.853,215.141,213.660
0.010,0.402,2.280,2.280,185.836,215.176,213.704
0.012,0.456,2.319,2.320,185.820,215.205,213.747
0.014,0.506,2.357,2.359,185.807,215.226,213.789
0.016,0.550,2.394,2.396,185.797,215.240,213.830
0.017,0.590,2.428,2.430,185.789,215.243,213.870
0.019,0.629,2.459,2.460,185.785,215.238,213.908
0.021,0.668,2.485,2.485,185.783,215.226,213.945
0.022,0.706,2.508,2.504,185.784,215.211,213.980
0.024,0.742,2.526,2.520,185.787,215.196,214.013
0.026,0.776,2.540,2.532,185.792,215.185,214.044
0.028,0.806,2.551,2.543,185.798,215.180,214.073
0.029,0.834,2.557,2.553,185.805,215.186,214.100
0.031,0.866,2.560,2.565,185.812,215.205,214.124
0.033,0.909,2.562,2.578,185.820,215.240,214.147
0.035,0.968,2.564,2.593,185.828,215.296,214.166
0.036,1.046,2.569,2.612,185.836,215.371,214.183
0.038,1.139,2.581,2.634,185.843,215.464,214.197
0.040,1.246,2.601,2.661,185.850,215.569,214.208
0.041,1.361,2.633,2.692,185.855,215.684,214.214
0.043,1.481,2.675,2.728,185.860,215.804,214.217
0.045,1.603,2.723,2.767,185.864,215.926,214.214
0.047,1.723,2.775,2.806,185.867,216.046,214.207
0.048,1.838,2.826,2.845,185.869,216.160,214.195
0.050,1.944,2.873,2.881,185.869,216.264,214.177
0.052,2.038,2.912,2.913,185.868,216.356,214.152
0.054,2.121,2.942,2.939,185.865,216.433,214.122
0.055,2.196,2.965,2.960,185.862,216.499,214.088
0.057,2.264,2.980,2.976,185.858,216.554,214.049
0.059,2.328,2.987,2.985,185.853,216.602,214.007
0.060,2.389,2.988,2.988,185.849,216.645,213.963
0.062,2.449,2.983,2.984,185.846,216.684,213.917
0.064,2.508,2.975,2.976,185.844,216.721,213.871
0.066,2.568,2.964,2.965,185.843,216.758,213.825
0.067,2.628,2.953,2.954,185.843,216.798,213.780
0.069,2.689,2.944,2.944,185.846,216.842,213.737
0.071,2.753,2.939,2.939,185.852,216.891,213.697
0.073,2.818,2.940,2.940,185.859,216.942,213.658
0.074,2.884,2.946,2.946,185.870,216.996,213.621
0.076,2.951,2.956,2.956,185.882,217.052,213.585
0.078,3.018,2.969,2.969,185.898,217.107,213.550
0.079,3.085,2.984,2.984,185.916,217.162,213.517
0.081,3.150,3.000,3.000,185.936,217.215,213.484
0.083,3.214,3.016,3.016,185.960,217.265,213.452
0.085,3.276,3.031,3.031,185.986,217.311,213.420
0.086,3.336,3.046,3.046,186.016,217.353,213.389
0.088,3.394,3.059,3.059,186.047,217.390,213.358
0.090,3.450,3.070,3.070,186.078,217.425,213.328
0.092,3.503,3.079,3.079,186.108,217.458,213.300
0.093,3.552,3.086,3.086,186.135,217.491,213.274
0.095,3.598,3.092,3.092,186.158,217.523,213.250
0.097,3.641,3.100,3.100,186.176,217.557,213.231
0.098,3.683,3.109,3.109,186.187,217.593,213.214
0.100,3.724,3.123,3.123,186.189,217.633,213.203
0.102,3.769,3.143,3.143,186.182,217.677,213.196
0.104,3.821,3.167,3.167,186.165,217.726,213.194
0.105,3.880,3.193,3.193,186.139,217.779,213.196
0.107,3.943,3.219,3.219,186.108,217.834,213.199
0.109,4.008,3.240,3.240,186.075,217.890,213.201
0.111,4.073,3.255,3.255,186.042,217.946,213.202
0.112,4.135,3.261,3.261,186.012,218.000,213.199
0.114,4.192,3.258,3.258,185.988,218.051,213.191
0.116,4.243,3.247,3.247,185.972,218.097,213.175
0.117,4.291,3.230,3.230,185.967,218.137,213.150
0.119,4.341,3.209,3.209,185.977,218.170,213.114
0.121,4.401,3.184,3.184,186.001,218.196,213.066
0.123,4.475,3.158,3.158,186.036,218.216,213.004
0.124,4.565,3.130,3.130,186.081,218.232,212.927
0.126,4.672,3.098,3.098,186.132,218.247,212.834
0.128,4.795,3.061,3.061,186.187,218.262,212.725
0.130,4.935,3.018,3.018,186.241,218.279,212.597
0.131,5.092,2.967,2.967,186.293,218.301,212.451
0.133,5.267,2.908,2.908,186.339,218.329,212.284
0.135,5.463,2.843,2.843,186.377,218.365,212.096
0.136,5.680,2.776,2.776,186.403,218.411,211.885
0.138,5.917,2.711,2.711,186.417,218.468,211.655
0.140,6.168,2.652,2.652,186.421,218.532,211.412
0.142,6.427,2.601,2.601,186.416,218.600,211.162
0.143,6.687,2.562,2.562,186.404,218.671,210.913
0.145,6.941,2.534,2.534,186.387,218.741,210.669
0.147,7.182,2.516,2.516,186.367,218.809,210.439
0.149,7.402,2.507,2.507,186.345,218.870,210.228
0.150,7.595,2.505,2.505,186.323,218.923,210.044
0.152,7.754,2.509,2.509,186.303,218.965,209.893
0.154,7.871,2.518,2.518,186.287,218.993,209.780
0.155,7.950,2.530,2.530,186.273,219.009,209.704
0.157,7.997,2.542,2.542,186.262,219.016,209.659
0.159,8.020,2.551,2.551,186.251,219.016,209.639
0.161,8.032,2.556,2.556,186.239,219.012,209.637
0.162,8.050,2.553,2.553,186.225,219.009,209.647
0.164,8.074,2.542,2.542,186.207,219.008,209.663
0.166,8.101,2.525,2.525,186.184,219.012,209.678
0.168,8.134,2.501,2.501,186.155,219.026,209.686
0.169,8.179,2.473,2.473,186.119,219.051,209.682
0.171,8.243,2.442,2.442,186.074,219.090,209.659
0.173,8.329,2.408,2.408,186.020,219.143,209.618
0.174,8.435,2.372,2.372,185.957,219.207,209.562
0.176,8.557,2.334,2.334,185.887,219.281,209.495
0.178,8.693,2.293,2.293,185.810,219.363,209.418
0.180,8.839,2.250,2.250,185.727,219.451,209.336
0.181,8.993,2.205,2.205,185.637,219.543,209.251
0.183,9.152,2.157,2.157,185.542,219.637,209.166
0.185,9.312,2.109,2.109,185.442,219.731,209.084
0.187,9.471,2.062,2.062,185.338,219.824,209.007
0.188,9.626,2.020,2.020,185.230,219.913,208.939
0.190,9.779,1.986,1.986,185.118,219.999,208.881
0.192,9.929,1.961,1.961,185.002,220.081,208.833
0.193,10.076,1.949,1.949,184.884,220.159,208.797
0.195,10.221,1.946,1.946,184.762,220.235,208.772
0.197,10.365,1.947,1.947,184.637,220.306,208.761
0.199,10.509,1.949,1.949,184.510,220.375,208.764
0.200,10.655,1.946,1.946,184.381,220.439,208.781
0.202,10.804,1.935,1.935,184.249,220.501,208.814
0.204,10.958,1.911,1.911,184.115,220.559,208.864
0.206,11.118,1.880,1.880,183.979,220.613,208.929
0.207,11.282,1.847,1.847,183.844,220.663,209.006
0.209,11.447,1.818,1.818,183.709,220.709,209.090
0.211,11.610,1.798,1.798,183.576,220.750,209.175
0.212,11.768,1.793,1.793,183.447,220.785,209.259
0.214,11.918,1.806,1.806,183.322,220.815,209.335
0.216,12.055,1.831,1.831,183.203,220.838,209.400
0.218,12.178,1.864,1.864,183.092,220.854,209.449
0.219,12.285,1.898,1.898,182.988,220.863,209.477
0.221,12.379,1.929,1.929,182.895,220.865,209.480
0.223,12.467,1.950,1.950,182.810,220.859,209.456
0.225,12.555,1.958,1.958,182.735,220.849,209.411
0.226,12.649,1.956,1.956,182.666,220.837,209.348
0.228,12.749,1.944,1.944,182.604,220.824,209.271
0.230,12.853,1.925,1.925,182.546,220.815,209.185
0.231,12.960,1.900,1.900,182.491,220.810,209.094
0.233,13.066,1.870,1.870,182.438,220.812,209.002
0.235,13.169,1.839,1.839,182.386,220.824,208.914
0.237,13.269,1.806,1.806,182.333,220.849,208.833
0.238,13.365,1.775,1.775,182.278,220.887,208.763
0.240,13.462,1.748,1.748,182.221,220.939,208.706
0.242,13.560,1.726,1.726,182.159,220.999,208.657
0.244,13.661,1.711,1.711,182.094,221.064,208.615
0.245,13.765,1.703,1.703,182.024,221.129,208.577
0.247,13.870,1.699,1.699,181.948,221.191,208.540
0.249,13.975,1.696,1.696,181.865,221.245,208.502
0.250,14.083,1.691,1.691,181.776,221.288,208.459
0.252,14.195,1.682,1.682,181.679,221.314,208.410
0.254,14.316,1.666,1.666,181.574,221.321,208.351
0.256,14.451,1.647,1.647,181.460,221.304,208.280
0.257,14.603,1.630,1.630,181.337,221.265,208.200
0.259,14.770,1.620,1.620,181.205,221.208,208.113
0.261,14.949,1.624,1.624,181.066,221.137,208.025
0.263,15.138,1.645,1.645,180.920,221.056,207.939
0.264,15.332,1.689,1.689,180.766,220.968,207.858
0.266,15.530,1.749,1.749,180.606,220.878,207.787
0.268,15.727,1.818,1.818,180.439,220.788,207.730
0.269,15.923,1.887,1.887,180.267,220.704,207.689
0.271,16.117,1.948,1.948,180.090,220.628,207.670
0.273,16.309,1.993,1.993,179.909,220.565,207.674
0.275,16.501,2.016,2.016,179.725,220.514,207.697
0.276,16.691,2.021,2.021,179.543,220.474,207.735
0.278,16.877,2.013,2.013,179.365,220.446,207.781
0.280,17.055,1.995,1.995,179.195,220.429,207.829
0.282,17.222,1.972,1.972,179.034,220.423,207.875
0.283,17.374,1.950,1.950,178.887,220.427,207.912
0.285,17.507,1.932,1.932,178.756,220.441,207.935
0.287,17.622,1.918,1.918,178.644,220.464,207.938
0.288,17.720,1.911,1.911,178.554,220.497,207.916
0.290,17.812,1.912,1.912,178.488,220.537,207.866
0.292,17.911,1.922,1.922,178.442,220.585,207.792
0.294,18.023,1.942,1.942,178.412,220.638,207.698
0.295,18.146,1.971,1.971,178.395,220.695,207.591
0.297,18.278,2.008,2.008,178.386,220.755,207.473
0.299,18.415,2.048,2.048,178.382,220.817,207.351
0.301,18.551,2.090,2.090,178.378,220.878,207.230
0.302,18.682,2.130,2.130,178.372,220.938,207.114
0.304,18.804,2.166,2.166,178.358,220.996,207.007
0.306,18.912,2.196,2.196,178.334,221.049,206.916
0.307,19.008,2.222,2.222,178.297,221.097,206.842
0.309,19.095,2.246,2.246,178.251,221.142,206.783
0.311,19.177,2.269,2.269,178.197,221.182,206.737
0.313,19.255,2.291,2.291,178.138,221.220,206.701
0.314,19.331,2.314,2.314,178.076,221.255,206.674
0.316,19.405,2.339,2.339,178.014,221.288,206.653
0.318,19.475,2.364,2.364,177.955,221.321,206.636
0.320,19.540,2.391,2.391,177.900,221.352,206.620
0.321,19.599,2.417,2.417,177.853,221.384,206.603
0.323,19.652,2.443,2.443,177.816,221.417,206.584
0.325,19.701,2.469,2.469,177.788,221.450,206.561
0.326,19.747,2.494,2.494,177.769,221.484,206.536
0.328,19.793,2.516,2.516,177.757,221.518,206.509
0.330,19.838,2.536,2.536,177.750,221.552,206.480
0.332,19.882,2.552,2.552,177.746,221.585,206.451
0.333,19.925,2.563,2.563,177.745,221.618,206.423
0.335,19.967,2.569,2.569,177.745,221.650,206.396
0.337,20.007,2.571,2.571,177.743,221.680,206.371
0.339,20.043,2.572,2.572,177.739,221.709,206.349
0.340,20.077,2.571,2.571,177.731,221.736,206.330
0.342,20.108,2.571,2.571,177.719,221.760,206.316
0.344,20.136,2.574,2.574,177.705,221.782,206.305
0.345,20.160,2.579,2.579,177.691,221.801,206.297
0.347,20.181,2.587,2.587,177.678,221.815,206.293
0.349,20.196,2.593,2.593,177.667,221.826,206.291
0.351,20.205,2.598,2.598,177.661,221.833,206.293
0.352,20.210,2.598,2.598,177.660,221.834,206.298
0.354,20.220,2.592,2.592,177.666,221.830,206.305
0.356,20.241,2.579,2.579,177.681,221.820,206.314
0.358,20.272,2.562,2.562,177.706,221.805,206.326
0.359,20.310,2.545,2.545,177.737,221.785,206.337
0.361,20.348,2.530,2.530,177.768,221.765,206.346
0.363,20.380,2.520,2.520,177.794,221.747,206.348
0.364,20.403,2.519,2.519,177.811,221.733,206.341
0.366,20.422,2.525,2.525,177.814,221.727,206.323
0.368,20.459,2.536,2.536,177.797,221.731,206.291
0.370,20.526,2.547,2.547,177.755,221.748,206.242
0.371,20.631,2.553,2.553,177.684,221.781,206.172
0.373,20.781,2.552,2.552,177.577,221.832,206.080
0.375,20.978,2.538,2.538,177.433,221.903,205.964
0.377,21.215,2.514,2.514,177.259,221.991,205.829
0.378,21.481,2.484,2.484,177.062,222.090,205.682
0.380,21.764,2.453,2.453,176.851,222.198,205.526
0.382,22.055,2.427,2.427,176.633,222.309,205.370
0.383,22.341,2.409,2.409,176.417,222.419,205.217
0.385,22.613,2.405,2.405,176.211,222.524,205.075
0.387,22.860,2.415,2.415,176.022,222.620,204.949
0.389,23.070,2.435,2.435,175.858,222.702,204.844
0.390,23.234,2.464,2.464,175.729,222.767,204.767
0.392,23.347,2.499,2.499,175.637,222.812,204.719
0.394,23.416,2.537,2.537,175.578,222.839,204.696
0.396,23.449,2.576,2.576,175.548,222.852,204.692
0.397,23.460,2.611,2.611,175.543,222.853,204.702
0.399,23.485,2.640,2.640,175.558,222.844,204.721
0.401,23.525,2.657,2.657,175.588,222.830,204.743
0.402,23.574,2.659,2.659,175.628,222.811,204.763
0.404,23.626,2.641,2.641,175.675,222.791,204.775
0.406,23.677,2.602,2.602,175.723,222.773,204.774
0.408,23.728,2.549,2.549,175.768,222.760,204.755
0.409,23.783,2.492,2.492,175.807,222.753,204.717
0.411,23.845,2.440,2.440,175.838,222.755,204.664
0.413,23.913,2.403,2.403,175.860,222.768,204.600
0.415,23.990,2.389,2.389,175.870,222.793,204.529
0.416,24.074,2.403,2.403,175.867,222.833,204.455
0.418,24.168,2.435,2.435,175.849,222.891,204.383
0.420,24.274,2.478,2.478,175.815,222.966,204.316
0.421,24.398,2.522,2.522,175.763,223.063,204.258
0.423,24.544,2.556,2.556,175.690,223.183,204.215
0.425,24.718,2.571,2.571,175.597,223.326,204.188
0.427,24.917,2.566,2.566,175.486,223.491,204.180
0.428,25.137,2.546,2.546,175.360,223.671,204.187
0.430,25.368,2.518,2.518,175.227,223.860,204.207
0.432,25.605,2.490,2.490,175.091,224.051,204.237
0.434,25.838,2.468,2.468,174.956,224.237,204.276
0.435,26.060,2.461,2.461,174.829,224.414,204.321
0.437,26.262,2.469,2.469,174.714,224.573,204.370
0.439,26.437,2.487,2.487,174.618,224.709,204.420
0.440,26.576,2.513,2.513,174.543,224.816,204.470
0.442,26.674,2.540,2.540,174.496,224.888,204.516
0.444,26.738,2.565,2.565,174.473,224.930,204.558
0.446,26.778,2.584,2.584,174.468,224.951,204.592
0.447,26.806,2.595,2.595,174.475,224.957,204.618
0.449,26.827,2.599,2.599,174.489,224.957,204.634
0.451,26.842,2.596,2.596,174.504,224.959,204.638
0.453,26.861,2.587,2.587,174.514,224.971,204.628
0.454,26.900,2.573,2.573,174.513,225.000,204.602
0.456,26.973,2.555,2.555,174.496,225.056,204.558
0.458,27.089,2.536,2.536,174.457,225.145,204.496
0.459,27.254,2.520,2.520,174.392,225.274,204.414
0.461,27.462,2.513,2.513,174.304,225.434,204.315
0.463,27.700,2.519,2.519,174.199,225.617,204.206
0.465,27.957,2.543,2.543,174.082,225.814,204.089
0.466,28.222,2.587,2.587,173.958,226.016,203.971
0.468,28.484,2.645,2.645,173.831,226.214,203.855
0.470,28.730,2.709,2.709,173.708,226.397,203.746
0.472,28.951,2.770,2.770,173.592,226.559,203.649
0.473,29.134,2.820,2.820,173.490,226.688,203.568
0.475,29.270,2.851,2.851,173.407,226.776,203.509
0.477,29.354,2.858,2.858,173.344,226.820,203.473
0.478,29.401,2.846,2.846,173.301,226.829,203.457
0.480,29.431,2.822,2.822,173.276,226.814,203.459
0.482,29.465,2.792,2.792,173.265,226.785,203.474
0.484,29.506,2.764,2.764,173.267,226.753,203.500
0.485,29.549,2.743,2.743,173.279,226.729,203.533
0.487,29.590,2.734,2.734,173.299,226.723,203.569
0.489,29.640,2.731,2.731,173.324,226.747,203.605
0.491,29.717,2.729,2.729,173.354,226.810,203.637
0.492,29.838,2.723,2.723,173.384,226.924,203.663
0.494,30.007,2.709,2.709,173.414,227.089,203.680
0.496,30.215,2.681,2.681,173.445,227.295,203.688
0.497,30.453,2.638,2.638,173.478,227.531,203.688
0.499,30.709,2.587,2.587,173.513,227.785,203.680
0.501,30.973,2.531,2.531,173.550,228.045,203.663
0.503,31.233,2.476,2.476,173.592,228.301,203.638
0.504,31.479,2.427,2.427,173.638,228.540,203.606
0.506,31.700,2.390,2.390,173.689,228.752,203.565
0.508,31.889,2.366,2.366,173.747,228.924,203.518
0.509,32.038,2.355,2.355,173.810,229.048,203.462
0.511,32.158,2.355,2.355,173.879,229.123,203.400
0.513,32.264,2.365,2.365,173.951,229.163,203.332
0.515,32.368,2.386,2.386,174.021,229.180,203.257
0.516,32.472,2.414,2.414,174.088,229.185,203.178
0.518,32.575,2.449,2.449,174.148,229.190,203.094
0.520,32.678,2.485,2.485,174.198,229.209,203.006
0.522,32.786,2.520,2.520,174.235,229.252,202.915
0.523,32.912,2.548,2.548,174.257,229.333,202.820
0.525,33.073,2.566,2.566,174.259,229.462,202.724
0.527,33.287,2.572,2.572,174.241,229.652,202.626
0.528,33.553,2.570,2.570,174.203,229.895,202.527
0.530,33.862,2.565,2.565,174.149,230.181,202.425
0.532,34.201,2.564,2.564,174.084,230.498,202.322
0.534,34.559,2.575,2.575,174.010,230.832,202.217
0.535,34.924,2.602,2.602,173.932,231.172,202.109
0.537,35.285,2.652,2.652,173.854,231.506,201.998
0.539,35.628,2.718,2.718,173.779,231.822,201.885
0.541,35.943,2.796,2.796,173.711,232.106,201.769
0.542,36.218,2.879,2.879,173.654,232.348,201.650
0.544,36.448,2.961,2.961,173.611,232.538,201.528
0.546,36.636,3.037,3.037,173.582,232.677,201.405
0.547,36.792,3.102,3.102,173.564,232.773,201.283
0.549,36.923,3.156,3.157,173.555,232.831,201.167
0.551,37.036,3.201,3.201,173.554,232.857,201.057
0.553,37.136,3.236,3.237,173.559,232.857,200.956
0.554,37.227,3.263,3.264,173.569,232.837,200.868
0.556,37.309,3.283,3.283,173.581,232.803,200.795
0.558,37.380,3.297,3.296,173.593,232.760,200.739
0.560,37.439,3.306,3.304,173.604,232.715,200.703
0.561,37.485,3.312,3.310,173.613,232.672,200.688
0.563,37.523,3.317,3.315,173.620,232.635,200.688
0.565,37.554,3.323,3.322,173.624,232.606,200.699
0.566,37.579,3.331,3.332,173.627,232.587,200.716
0.568,37.596,3.342,3.345,173.629,232.582,200.732
0.570,37.611,3.355,3.361,173.630,232.591,200.743
0.572,37.638,3.370,3.377,173.630,232.619,200.742
0.573,37.689,3.386,3.392,173.630,232.667,200.725
0.575,37.770,3.403,3.405,173.630,232.737,200.687
0.577,37.886,3.420,3.415,173.631,232.833,200.621
0.579,38.040,3.437,3.422,173.632,232.955,200.527
0.580,38.225,3.456,3.432,173.634,233.099,200.410
0.582,38.438,3.476,3.449,173.637,233.263,200.275
0.584,38.670,3.498,3.476,173.642,233.443,200.127
0.585,38.917,3.524,3.519,173.647,233.635,199.973
0.587,39.172,3.554,3.579,173.653,233.838,199.818
0.589,39.430,3.588,3.656,173.661,234.047,199.667
0.591,39.685,3.628,3.743,173.670,234.259,199.525
0.592,39.932,3.673,3.837,173.681,234.471,199.400
0.594,40.166,3.726,3.931,173.693,234.680,199.294
0.596,40.387,3.785,4.022,173.707,234.884,199.210
0.598,40.597,3.853,4.104,173.724,235.082,199.144
0.599,40.796,3.926,4.176,173.743,235.274,199.093
0.601,40.987,4.002,4.240,173.766,235.459,199.053
0.603,41.170,4.078,4.294,173.792,235.636,199.021
0.604,41.344,4.153,4.339,173.823,235.806,198.992
0.606,41.511,4.224,4.376,173.858,235.967,198.964
0.608,41.671,4.287,4.405,173.899,236.119,198.933
0.610,41.825,4.346,4.428,173.946,236.261,198.896
0.611,41.975,4.399,4.450,173.999,236.392,198.849
0.613,42.120,4.448,4.473,174.056,236.513,198.793
0.615,42.260,4.493,4.500,174.117,236.623,198.731
0.617,42.394,4.537,4.536,174.180,236.721,198.665
0.618,42.520,4.578,4.579,174.242,236.808,198.599
0.620,42.635,4.616,4.628,174.302,236.883,198.534
0.622,42.739,4.651,4.676,174.358,236.947,198.475
0.623,42.827,4.681,4.721,174.408,236.998,198.424
0.625,42.897,4.706,4.756,174.451,237.036,198.383
0.627,42.948,4.724,4.779,174.485,237.062,198.355
0.629,42.977,4.736,4.788,174.507,237.074,198.342
0.630,42.990,4.743,4.786,174.520,237.077,198.343
0.632,43.001,4.745,4.779,174.525,237.073,198.352
0.634,43.017,4.744,4.770,174.523,237.064,198.366
0.636,43.036,4.742,4.763,174.517,237.055,198.380
0.637,43.052,4.738,4.762,174.509,237.047,198.392
0.639,43.063,4.734,4.770,174.499,237.045,198.396
0.641,43.076,4.731,4.784,174.490,237.051,198.389
0.642,43.105,4.729,4.803,174.483,237.069,198.367
0.644,43.158,4.730,4.825,174.480,237.101,198.325
0.646,43.237,4.733,4.851,174.483,237.150,198.263
0.648,43.338,4.741,4.878,174.490,237.212,198.183
0.649,43.456,4.752,4.905,174.499,237.285,198.091
0.651,43.583,4.766,4.931,174.510,237.364,197.993
0.653,43.713,4.783,4.953,174.521,237.447,197.892
0.655,43.841,4.801,4.971,174.530,237.529,197.796
0.656,43.959,4.820,4.982,174.535,237.609,197.708
0.658,44.063,4.840,4.986,174.536,237.681,197.634
0.660,44.146,4.860,4.984,174.531,237.743,197.578
0.661,44.205,4.880,4.978,174.518,237.791,197.548
0.663,44.244,4.901,4.973,174.498,237.824,197.542
0.665,44.279,4.923,4.968,174.474,237.846,197.554
0.667,44.314,4.946,4.969,174.450,237.858,197.576
0.668,44.346,4.969,4.976,174.430,237.866,197.601
0.670,44.369,4.990,4.986,174.418,237.872,197.619
0.672,44.378,5.006,4.997,174.417,237.879,197.624
0.674,44.403,5.012,5.006,174.433,237.891,197.608
0.675,44.464,5.006,5.009,174.467,237.911,197.562
0.677,44.571,4.983,5.002,174.525,237.943,197.478
0.679,44.732,4.944,4.986,174.611,237.990,197.350
0.680,44.948,4.893,4.962,174.723,238.052,197.177
0.682,45.207,4.837,4.935,174.858,238.125,196.967
0.684,45.499,4.782,4.909,175.010,238.206,196.731
0.686,45.814,4.734,4.889,175.175,238.290,196.478
0.687,46.139,4.700,4.877,175.349,238.374,196.216
0.689,46.464,4.682,4.877,175.526,238.454,195.955
0.691,46.778,4.678,4.884,175.702,238.526,195.705
0.693,47.071,4.683,4.894,175.872,238.586,195.474
0.694,47.332,4.695,4.904,176.031,238.630,195.271
0.696,47.552,4.709,4.910,176.174,238.655,195.107
0.698,47.732,4.723,4.909,176.301,238.662,194.979
0.699,47.878,4.734,4.900,176.409,238.655,194.882
0.701,47.995,4.742,4.886,176.500,238.638,194.810
0.703,48.088,4.748,4.871,176.573,238.616,194.756
0.705,48.160,4.752,4.859,176.627,238.592,194.714
