"T","Distance","Radius","FreeRadius","X","Y","Z"
0.000,0.000,2.047,2.047,185.958,214.908,213.431
0.002,0.068,2.083,2.083,185.937,214.955,213.474
0.003,0.134,2.119,2.119,185.916,215.002,213.517
0.005,0.200,2.155,2.155,185.896,215.047,213.560
0.007,0.263,2.192,2.191,185.877,215.089,213.603
0.008,0.323,2.228,2.228,185.859,215.128,213.645
0.010,0.379,2.265,2.265,185.842,215.163,213.686
0.012,0.432,2.301,2.302,185.827,215.192,213.727
0.013,0.480,2.337,2.338,185.814,215.216,213.767
0.015,0.524,2.372,2.373,185.803,215.233,213.806
0.017,0.564,2.405,2.407,185.794,215.242,213.844
0.018,0.601,2.436,2.437,185.788,215.243,213.880
0.020,0.637,2.463,2.463,185.784,215.236,213.916
0.022,0.673,2.487,2.486,185.783,215.224,213.950
0.023,0.709,2.508,2.504,185.784,215.210,213.982
0.025,0.742,2.525,2.519,185.787,215.196,214.013
0.027,0.774,2.538,2.532,185.791,215.185,214.042
0.028,0.802,2.548,2.543,185.797,215.181,214.069
0.030,0.829,2.554,2.553,185.803,215.184,214.095
0.032,0.857,2.557,2.563,185.810,215.199,214.118
0.033,0.893,2.559,2.574,185.818,215.227,214.140
0.035,0.943,2.561,2.587,185.825,215.272,214.159
0.037,1.008,2.565,2.602,185.832,215.335,214.176
0.038,1.089,2.575,2.620,185.839,215.414,214.190
0.040,1.182,2.591,2.643,185.846,215.506,214.202
0.042,1.285,2.616,2.671,185.852,215.608,214.210
0.043,1.394,2.649,2.703,185.857,215.717,214.215
0.045,1.507,2.687,2.738,185.861,215.830,214.217
0.047,1.621,2.729,2.774,185.865,215.944,214.214
0.048,1.733,2.772,2.811,185.867,216.055,214.206
0.050,1.840,2.814,2.846,185.869,216.162,214.194
0.052,1.939,2.854,2.879,185.869,216.259,214.178
0.053,2.028,2.889,2.908,185.868,216.346,214.155
0.055,2.107,2.920,2.933,185.866,216.420,214.128
0.057,2.178,2.945,2.953,185.863,216.483,214.097
0.058,2.243,2.965,2.968,185.859,216.538,214.061
0.060,2.304,2.977,2.978,185.855,216.585,214.023
0.062,2.362,2.982,2.981,185.851,216.626,213.983
0.063,2.419,2.981,2.978,185.848,216.664,213.941
0.065,2.474,2.974,2.972,185.845,216.699,213.898
0.067,2.529,2.966,2.964,185.843,216.734,213.854
0.068,2.585,2.956,2.955,185.843,216.769,213.812
0.070,2.641,2.948,2.948,185.844,216.807,213.770
0.072,2.699,2.942,2.943,185.847,216.850,213.731
0.073,2.759,2.940,2.941,185.852,216.895,213.693
0.075,2.820,2.942,2.943,185.860,216.944,213.657
0.077,2.881,2.947,2.947,185.869,216.994,213.622
0.078,2.944,2.955,2.955,185.881,217.046,213.589
0.080,3.007,2.966,2.967,185.895,217.097,213.556
0.082,3.069,2.981,2.981,185.911,217.149,213.525
0.083,3.130,2.998,2.997,185.930,217.199,213.494
0.085,3.191,3.015,3.015,185.951,217.246,213.464
0.087,3.250,3.032,3.031,185.974,217.291,213.434
0.088,3.306,3.046,3.046,186.001,217.332,213.405
0.090,3.362,3.057,3.057,186.029,217.369,213.375
0.092,3.415,3.064,3.064,186.058,217.403,213.347
0.093,3.466,3.066,3.066,186.087,217.435,213.319
0.095,3.514,3.066,3.066,186.114,217.466,213.293
0.097,3.560,3.067,3.067,186.139,217.496,213.270
0.098,3.603,3.070,3.070,186.160,217.526,213.248
0.100,3.643,3.078,3.078,186.176,217.558,213.230
0.102,3.681,3.094,3.094,186.186,217.592,213.215
0.104,3.720,3.116,3.116,186.189,217.629,213.204
0.105,3.761,3.144,3.144,186.184,217.669,213.197
0.107,3.808,3.174,3.174,186.170,217.714,213.194
0.109,3.862,3.205,3.205,186.148,217.763,213.195
0.110,3.919,3.233,3.233,186.121,217.814,213.198
0.112,3.980,3.258,3.258,186.090,217.866,213.201
0.114,4.041,3.276,3.276,186.059,217.918,213.203
0.115,4.100,3.288,3.288,186.029,217.970,213.202
0.117,4.157,3.293,3.293,186.003,218.019,213.197
0.119,4.208,3.292,3.292,185.983,218.065,213.187
0.120,4.255,3.283,3.283,185.970,218.107,213.170
0.122,4.299,3.266,3.266,185.968,218.144,213.145
0.124,4.347,3.242,3.242,185.978,218.173,213.110
0.125,4.403,3.212,3.212,186.001,218.197,213.063
0.127,4.473,3.177,3.177,186.034,218.215,213.005
0.129,4.556,3.139,3.139,186.075,218.230,212.934
0.130,4.654,3.098,3.098,186.122,218.244,212.849
0.132,4.766,3.056,3.056,186.172,218.257,212.749
0.134,4.893,3.013,3.013,186.222,218.273,212.635
0.135,5.034,2.970,2.970,186.272,218.291,212.504
0.137,5.191,2.924,2.924,186.318,218.315,212.356
0.139,5.364,2.877,2.877,186.358,218.345,212.190
0.140,5.555,2.825,2.825,186.390,218.384,212.005
0.142,5.766,2.771,2.771,186.411,218.432,211.802
0.144,5.991,2.713,2.713,186.423,218.488,211.583
0.145,6.228,2.655,2.655,186.426,218.550,211.355
0.147,6.469,2.601,2.601,186.422,218.616,211.123
0.149,6.711,2.555,2.555,186.412,218.683,210.891
0.150,6.947,2.519,2.519,186.397,218.748,210.665
0.152,7.171,2.498,2.498,186.378,218.811,210.450
0.154,7.379,2.492,2.492,186.356,218.868,210.252
0.155,7.564,2.498,2.498,186.334,218.918,210.075
0.157,7.721,2.512,2.512,186.310,218.958,209.925
0.159,7.845,2.528,2.528,186.288,218.986,209.806
0.160,7.935,2.544,2.544,186.268,219.001,209.720
0.162,7.996,2.554,2.554,186.251,219.006,209.661
0.164,8.036,2.555,2.555,186.238,219.003,209.624
0.165,8.060,2.549,2.549,186.231,218.994,209.603
0.167,8.076,2.537,2.537,186.229,218.981,209.593
0.169,8.092,2.520,2.520,186.234,218.966,209.589
0.170,8.112,2.499,2.499,186.248,218.952,209.585
0.172,8.139,2.475,2.475,186.271,218.940,209.575
0.174,8.178,2.451,2.451,186.303,218.933,209.555
0.175,8.235,2.424,2.424,186.347,218.933,209.519
0.177,8.315,2.397,2.397,186.403,218.942,209.463
0.179,8.415,2.369,2.369,186.468,218.958,209.388
0.180,8.531,2.341,2.341,186.539,218.981,209.299
0.182,8.658,2.312,2.312,186.614,219.008,209.201
0.184,8.790,2.283,2.283,186.689,219.038,209.096
0.185,8.922,2.254,2.254,186.762,219.069,208.990
0.187,9.049,2.225,2.225,186.829,219.099,208.887
0.189,9.166,2.196,2.196,186.887,219.127,208.790
0.190,9.267,2.168,2.168,186.934,219.151,208.704
0.192,9.347,2.140,2.140,186.966,219.170,208.633
0.194,9.403,2.114,2.114,186.981,219.182,208.581
0.195,9.436,2.089,2.089,186.979,219.185,208.548
0.197,9.457,2.067,2.067,186.967,219.182,208.530
0.199,9.479,2.048,2.048,186.950,219.171,208.523
0.200,9.502,2.035,2.035,186.935,219.153,208.522
0.202,9.526,2.028,2.028,186.929,219.129,208.523
0.204,9.557,2.027,2.027,186.937,219.100,208.520
0.205,9.603,2.026,2.026,186.966,219.065,208.510
0.207,9.675,2.021,2.021,187.023,219.026,208.487
0.209,9.783,2.004,2.004,187.113,218.982,208.448
0.210,9.934,1.971,1.971,187.242,218.935,208.387
0.212,10.134,1.914,1.914,187.416,218.884,208.301
0.214,10.379,1.831,1.831,187.630,218.832,208.194
0.215,10.660,1.729,1.729,187.876,218.779,208.068
0.217,10.967,1.621,1.621,188.145,218.729,207.930
0.219,11.291,1.518,1.518,188.431,218.683,207.784
0.220,11.623,1.432,1.432,188.724,218.643,207.635
0.222,11.953,1.375,1.375,189.018,218.610,207.486
0.224,12.273,1.358,1.358,189.304,218.588,207.344
0.225,12.574,1.374,1.374,189.574,218.577,207.212
0.227,12.847,1.417,1.417,189.821,218.579,207.095
0.229,13.084,1.477,1.477,190.036,218.597,206.999
0.230,13.283,1.546,1.546,190.217,218.630,206.924
0.232,13.449,1.615,1.615,190.367,218.676,206.868
0.234,13.590,1.676,1.676,190.490,218.732,206.829
0.235,13.712,1.728,1.728,190.591,218.797,206.805
0.237,13.820,1.770,1.770,190.672,218.867,206.793
0.239,13.919,1.803,1.803,190.739,218.940,206.790
0.240,14.012,1.827,1.827,190.794,219.014,206.795
0.242,14.098,1.842,1.842,190.843,219.085,206.804
0.244,14.180,1.849,1.849,190.888,219.153,206.815
0.245,14.257,1.850,1.850,190.934,219.213,206.826
0.247,14.329,1.846,1.846,190.985,219.264,206.834
0.249,14.398,1.841,1.841,191.039,219.305,206.839
0.250,14.463,1.837,1.837,191.095,219.338,206.843
0.252,14.525,1.836,1.836,191.152,219.363,206.844
0.254,14.583,1.840,1.840,191.207,219.381,206.845
0.255,14.636,1.851,1.851,191.259,219.392,206.845
0.257,14.684,1.865,1.865,191.307,219.396,206.845
0.259,14.725,1.882,1.882,191.348,219.395,206.845
0.260,14.758,1.900,1.900,191.380,219.389,206.847
0.262,14.783,1.918,1.918,191.403,219.379,206.850
0.264,14.801,1.934,1.934,191.413,219.365,206.855
0.265,14.819,1.949,1.949,191.413,219.348,206.862
0.267,14.840,1.960,1.960,191.404,219.331,206.870
0.269,14.864,1.969,1.969,191.389,219.314,206.878
0.270,14.886,1.974,1.974,191.373,219.301,206.885
0.272,14.905,1.974,1.974,191.357,219.292,206.891
0.274,14.917,1.971,1.971,191.346,219.289,206.894
0.275,14.923,1.963,1.963,191.343,219.295,206.893
0.277,14.941,1.952,1.952,191.350,219.311,206.888
0.279,14.978,1.938,1.938,191.371,219.338,206.877
0.280,15.037,1.923,1.923,191.410,219.379,206.860
0.282,15.121,1.907,1.907,191.468,219.436,206.836
0.284,15.229,1.891,1.891,191.543,219.505,206.805
0.285,15.354,1.876,1.876,191.633,219.586,206.771
0.287,15.493,1.864,1.864,191.734,219.673,206.734
0.289,15.640,1.857,1.857,191.842,219.766,206.696
0.290,15.791,1.856,1.856,191.954,219.861,206.660
0.292,15.940,1.863,1.863,192.066,219.955,206.627
0.294,16.084,1.880,1.880,192.174,220.045,206.599
0.295,16.218,1.905,1.905,192.276,220.129,206.578
0.297,16.337,1.935,1.935,192.367,220.203,206.565
0.299,16.436,1.967,1.967,192.445,220.266,206.563
0.301,16.517,1.998,1.998,192.508,220.316,206.572
0.302,16.582,2.024,2.024,192.557,220.355,206.589
0.304,16.638,2.041,2.041,192.595,220.387,206.615
0.306,16.688,2.049,2.049,192.625,220.414,206.645
0.307,16.736,2.048,2.048,192.647,220.439,206.679
0.309,16.783,2.040,2.040,192.665,220.464,206.715
0.311,16.831,2.027,2.027,192.679,220.493,206.751
0.312,16.882,2.008,2.008,192.694,220.527,206.784
0.314,16.937,1.985,1.985,192.710,220.571,206.814
0.316,17.000,1.961,1.961,192.730,220.625,206.839
0.317,17.075,1.936,1.936,192.755,220.694,206.856
0.319,17.161,1.912,1.912,192.785,220.774,206.866
0.321,17.257,1.893,1.893,192.820,220.863,206.870
0.322,17.358,1.879,1.879,192.856,220.958,206.871
0.324,17.463,1.873,1.873,192.894,221.055,206.869
0.326,17.567,1.874,1.874,192.932,221.152,206.865
0.327,17.668,1.880,1.880,192.968,221.246,206.861
0.329,17.761,1.888,1.888,193.001,221.333,206.857
0.331,17.844,1.895,1.895,193.030,221.411,206.856
0.332,17.913,1.899,1.899,193.054,221.475,206.859
0.334,17.965,1.896,1.896,193.072,221.524,206.866
0.336,18.001,1.886,1.886,193.082,221.556,206.879
0.337,18.026,1.871,1.871,193.088,221.575,206.894
0.339,18.045,1.855,1.855,193.090,221.584,206.911
0.341,18.062,1.840,1.840,193.091,221.586,206.927
0.342,18.076,1.830,1.830,193.093,221.584,206.941
0.344,18.086,1.826,1.826,193.098,221.583,206.950
0.346,18.096,1.830,1.830,193.107,221.584,206.954
0.347,18.115,1.841,1.841,193.123,221.591,206.949
0.349,18.148,1.854,1.854,193.147,221.609,206.934
0.351,18.201,1.868,1.868,193.182,221.639,206.907
0.352,18.278,1.879,1.879,193.228,221.685,206.867
0.354,18.376,1.885,1.885,193.285,221.747,206.816
0.356,18.490,1.885,1.885,193.349,221.821,206.758
0.357,18.617,1.878,1.878,193.418,221.907,206.695
0.359,18.750,1.866,1.866,193.489,222.002,206.633
0.361,18.887,1.849,1.849,193.558,222.104,206.574
0.362,19.022,1.827,1.827,193.624,222.211,206.523
0.364,19.153,1.802,1.802,193.682,222.321,206.482
0.366,19.277,1.773,1.773,193.731,222.431,206.456
0.367,19.393,1.745,1.745,193.767,222.541,206.448
0.369,19.503,1.719,1.719,193.788,222.648,206.461
0.371,19.612,1.699,1.699,193.794,222.750,206.498
0.372,19.725,1.686,1.686,193.789,222.849,206.554
0.374,19.846,1.684,1.684,193.779,222.945,206.626
0.376,19.973,1.695,1.695,193.768,223.040,206.710
0.377,20.106,1.715,1.715,193.762,223.134,206.804
0.379,20.241,1.742,1.742,193.765,223.227,206.902
0.381,20.380,1.773,1.773,193.784,223.321,207.002
0.382,20.522,1.804,1.804,193.822,223.417,207.100
0.384,20.671,1.834,1.834,193.885,223.515,207.192
0.386,20.832,1.859,1.859,193.979,223.616,207.276
0.387,21.012,1.883,1.883,194.107,223.722,207.347
0.389,21.213,1.909,1.909,194.264,223.831,207.405
0.391,21.431,1.939,1.938,194.444,223.944,207.453
0.392,21.660,1.976,1.975,194.638,224.061,207.492
0.394,21.896,2.023,2.023,194.838,224.182,207.523
0.396,22.132,2.082,2.082,195.037,224.306,207.547
0.397,22.360,2.148,2.149,195.226,224.433,207.567
0.399,22.577,2.217,2.218,195.398,224.563,207.584
0.401,22.776,2.283,2.284,195.546,224.695,207.599
0.402,22.954,2.340,2.341,195.660,224.830,207.614
0.404,23.111,2.385,2.385,195.734,224.968,207.630
0.406,23.254,2.411,2.410,195.765,225.107,207.648
0.407,23.393,2.423,2.421,195.761,225.245,207.666
0.409,23.531,2.424,2.421,195.729,225.378,207.684
0.411,23.669,2.419,2.415,195.677,225.505,207.698
0.412,23.803,2.412,2.409,195.613,225.622,207.709
0.414,23.927,2.407,2.406,195.546,225.726,207.714
0.416,24.036,2.407,2.411,195.484,225.816,207.712
0.417,24.124,2.413,2.422,195.434,225.888,207.702
0.419,24.186,2.423,2.437,195.405,225.939,207.681
0.421,24.228,2.438,2.452,195.405,225.966,207.650
0.422,24.285,2.454,2.465,195.440,225.968,207.605
0.424,24.376,2.472,2.474,195.511,225.950,207.551
0.426,24.497,2.491,2.476,195.613,225.919,207.492
0.427,24.644,2.508,2.475,195.742,225.882,207.433
0.429,24.810,2.523,2.474,195.894,225.848,207.377
0.431,24.990,2.532,2.479,196.066,225.825,207.330
0.432,25.180,2.535,2.493,196.253,225.819,207.297
0.434,25.379,2.529,2.521,196.451,225.839,207.281
0.436,25.591,2.515,2.567,196.656,225.893,207.287
0.437,25.823,2.497,2.630,196.865,225.987,207.320
0.439,26.083,2.487,2.709,197.072,226.131,207.385
0.441,26.381,2.492,2.802,197.276,226.325,207.482
0.442,26.712,2.523,2.906,197.473,226.560,207.606
0.444,27.070,2.589,3.019,197.663,226.826,207.752
0.446,27.444,2.697,3.140,197.842,227.112,207.913
0.447,27.825,2.840,3.263,198.009,227.408,208.085
0.449,28.202,3.004,3.382,198.163,227.704,208.261
0.451,28.563,3.174,3.492,198.301,227.989,208.435
0.452,28.897,3.334,3.586,198.421,228.252,208.602
0.454,29.193,3.471,3.659,198.522,228.483,208.756
0.456,29.438,3.572,3.705,198.602,228.673,208.890
0.457,29.624,3.637,3.727,198.658,228.811,209.001
0.459,29.753,3.674,3.731,198.694,228.900,209.087
0.461,29.836,3.691,3.724,198.715,228.949,209.150
0.462,29.882,3.696,3.712,198.723,228.965,209.192
0.464,29.906,3.699,3.702,198.724,228.956,209.215
0.466,29.932,3.705,3.700,198.723,228.931,209.221
0.467,29.968,3.717,3.707,198.722,228.897,209.211
0.469,30.010,3.730,3.720,198.728,228.863,209.188
0.471,30.057,3.742,3.737,198.744,228.835,209.152
0.472,30.113,3.747,3.755,198.774,228.824,209.107
0.474,30.187,3.743,3.771,198.824,228.835,209.053
0.476,30.287,3.727,3.782,198.894,228.875,208.993
0.477,30.415,3.700,3.790,198.982,228.941,208.928
0.479,30.567,3.669,3.794,199.084,229.031,208.860
0.481,30.740,3.641,3.798,199.197,229.142,208.791
0.482,30.931,3.621,3.802,199.319,229.271,208.722
0.484,31.135,3.617,3.808,199.444,229.417,208.655
0.486,31.348,3.633,3.817,199.571,229.577,208.591
0.487,31.567,3.670,3.831,199.695,229.748,208.532
0.489,31.789,3.721,3.848,199.813,229.927,208.480
0.491,32.008,3.779,3.866,199.922,230.113,208.437
0.492,32.224,3.837,3.884,200.019,230.303,208.404
0.494,32.434,3.889,3.902,200.103,230.495,208.381
0.496,32.640,3.929,3.918,200.174,230.687,208.367
0.497,32.840,3.954,3.932,200.234,230.878,208.362
0.499,33.034,3.968,3.944,200.283,231.066,208.364
0.501,33.223,3.975,3.954,200.322,231.250,208.374
0.503,33.404,3.976,3.963,200.351,231.428,208.389
0.504,33.577,3.975,3.971,200.371,231.599,208.410
0.506,33.742,3.975,3.978,200.383,231.761,208.436
0.508,33.896,3.977,3.983,200.387,231.913,208.466
0.509,34.040,3.981,3.988,200.385,232.052,208.498
0.511,34.171,3.985,3.991,200.376,232.179,208.533
0.513,34.292,3.989,3.992,200.363,232.293,208.570
0.514,34.401,3.991,3.992,200.345,232.394,208.607
0.516,34.500,3.991,3.991,200.325,232.484,208.644
0.518,34.589,3.989,3.987,200.304,232.562,208.680
0.519,34.667,3.985,3.983,200.282,232.629,208.713
0.521,34.734,3.980,3.979,200.261,232.686,208.744
0.523,34.791,3.976,3.975,200.242,232.731,208.770
0.524,34.836,3.972,3.971,200.226,232.767,208.793
0.526,34.869,3.970,3.970,200.215,232.793,208.809
0.528,34.889,3.970,3.970,200.209,232.811,208.819
0.529,34.899,3.972,3.972,200.208,232.820,208.822
0.531,34.905,3.975,3.975,200.212,232.824,208.819
0.533,34.917,3.978,3.978,200.219,232.823,208.809
0.534,34.936,3.981,3.982,200.228,232.821,208.793
0.536,34.962,3.984,3.984,200.240,232.818,208.770
0.538,34.993,3.986,3.986,200.252,232.817,208.741
0.539,35.031,3.987,3.987,200.264,232.820,208.706
0.541,35.075,3.986,3.986,200.275,232.829,208.664
0.543,35.126,3.984,3.984,200.285,232.845,208.617
0.544,35.186,3.980,3.980,200.292,232.870,208.563
0.546,35.255,3.975,3.975,200.295,232.905,208.503
0.548,35.334,3.968,3.968,200.296,232.950,208.438
0.549,35.422,3.959,3.959,200.295,233.003,208.368
0.551,35.517,3.950,3.950,200.292,233.062,208.294
0.553,35.618,3.941,3.941,200.287,233.127,208.216
0.554,35.725,3.932,3.932,200.282,233.195,208.134
0.556,35.836,3.924,3.924,200.275,233.267,208.049
0.558,35.950,3.917,3.917,200.269,233.340,207.962
0.559,36.066,3.912,3.912,200.262,233.414,207.873
0.561,36.182,3.909,3.909,200.257,233.486,207.783
0.563,36.297,3.907,3.907,200.252,233.557,207.692
0.564,36.411,3.907,3.907,200.249,233.623,207.599
0.566,36.522,3.909,3.909,200.247,233.684,207.507
0.568,36.630,3.913,3.913,200.247,233.739,207.414
0.569,36.734,3.920,3.920,200.249,233.785,207.320
0.571,36.835,3.928,3.928,200.254,233.821,207.226
0.573,36.932,3.938,3.938,200.261,233.846,207.132
0.574,37.028,3.950,3.950,200.271,233.858,207.038
0.576,37.123,3.964,3.964,200.284,233.855,206.944
0.578,37.220,3.980,3.980,200.300,233.837,206.849
0.579,37.323,3.997,3.997,200.319,233.801,206.755
0.581,37.433,4.016,4.016,200.342,233.747,206.662
0.583,37.551,4.036,4.036,200.368,233.679,206.569
0.584,37.675,4.058,4.058,200.397,233.600,206.478
0.586,37.804,4.080,4.080,200.426,233.512,206.389
0.588,37.934,4.104,4.104,200.457,233.420,206.302
0.589,38.063,4.128,4.128,200.488,233.326,206.219
0.591,38.189,4.151,4.151,200.518,233.234,206.139
0.593,38.307,4.172,4.172,200.547,233.147,206.064
0.594,38.416,4.192,4.192,200.574,233.069,205.993
0.596,38.513,4.208,4.208,200.599,233.002,205.928
0.598,38.594,4.221,4.221,200.621,232.950,205.869
0.599,38.661,4.230,4.230,200.639,232.913,205.816
0.601,38.715,4.236,4.236,200.652,232.890,205.770
0.603,38.758,4.239,4.239,200.661,232.877,205.730
0.604,38.792,4.240,4.240,200.664,232.874,205.696
0.606,38.819,4.239,4.239,200.661,232.878,205.669
0.608,38.843,4.236,4.236,200.651,232.888,205.650
0.609,38.869,4.230,4.230,200.634,232.903,205.637
0.611,38.899,4.220,4.220,200.610,232.919,205.631
0.613,38.936,4.204,4.204,200.577,232.936,205.633
0.614,38.981,4.182,4.182,200.536,232.952,205.642
0.616,39.035,4.151,4.151,200.486,232.965,205.657
0.618,39.093,4.112,4.112,200.431,232.977,205.673
0.619,39.153,4.067,4.067,200.373,232.989,205.683
0.621,39.211,4.020,4.020,200.316,233.002,205.682
0.623,39.269,3.976,3.976,200.264,233.018,205.664
0.624,39.334,3.939,3.939,200.218,233.038,205.623
0.626,39.416,3.911,3.911,200.183,233.063,205.552
0.628,39.528,3.898,3.898,200.162,233.094,205.448
0.629,39.678,3.896,3.896,200.157,233.133,205.302
0.631,39.877,3.899,3.899,200.172,233.180,205.110
0.633,40.131,3.902,3.902,200.210,233.238,204.866
0.634,40.436,3.902,3.902,200.270,233.306,204.574
0.636,40.785,3.891,3.891,200.346,233.383,204.242
0.638,41.167,3.868,3.868,200.436,233.469,203.881
0.639,41.573,3.832,3.832,200.536,233.561,203.499
0.641,41.992,3.790,3.790,200.640,233.661,203.105
0.643,42.417,3.746,3.746,200.746,233.765,202.707
0.644,42.836,3.705,3.705,200.849,233.875,202.316
0.646,43.240,3.672,3.672,200.946,233.988,201.940
0.648,43.620,3.651,3.651,201.031,234.105,201.588
0.649,43.968,3.644,3.644,201.102,234.223,201.270
0.651,44.277,3.649,3.649,201.156,234.343,200.990
0.653,44.551,3.667,3.667,201.197,234.462,200.746
0.654,44.794,3.696,3.696,201.230,234.578,200.535
0.656,45.010,3.735,3.735,201.258,234.691,200.353
0.658,45.203,3.785,3.785,201.288,234.798,200.196
0.659,45.375,3.843,3.843,201.322,234.898,200.060
0.661,45.531,3.904,3.904,201.366,234.989,199.942
0.663,45.675,3.965,3.965,201.424,235.070,199.837
0.664,45.814,4.023,4.023,201.500,235.138,199.742
0.666,45.958,4.075,4.075,201.599,235.192,199.654
0.668,46.115,4.116,4.116,201.726,235.231,199.569
0.669,46.289,4.147,4.147,201.877,235.255,199.485
0.671,46.477,4.170,4.170,202.047,235.267,199.406
0.673,46.675,4.188,4.188,202.229,235.266,199.331
0.674,46.876,4.203,4.203,202.419,235.257,199.264
0.676,47.076,4.217,4.217,202.609,235.239,199.204
0.678,47.269,4.234,4.234,202.794,235.216,199.153
0.679,47.449,4.252,4.252,202.967,235.189,199.114
0.681,47.610,4.272,4.272,203.123,235.160,199.087
