"T","Distance","Radius","FreeRadius","X","Y","Z"
0.000,0.000,0.863,0.863,216.844,182.828,168.162
0.002,0.033,0.860,0.861,216.858,182.825,168.193
0.004,0.066,0.861,0.861,216.872,182.823,168.222
0.006,0.100,0.865,0.865,216.888,182.823,168.251
0.008,0.134,0.876,0.876,216.908,182.824,168.279
0.010,0.170,0.896,0.896,216.932,182.828,168.305
0.011,0.209,0.927,0.927,216.962,182.836,168.329
0.013,0.252,0.965,0.965,216.998,182.848,168.351
0.015,0.303,1.005,1.005,217.043,182.864,168.369
0.017,0.362,1.042,1.042,217.095,182.886,168.384
0.019,0.432,1.068,1.068,217.158,182.914,168.396
0.021,0.514,1.079,1.079,217.232,182.948,168.403
0.023,0.610,1.076,1.076,217.318,182.990,168.406
0.025,0.720,1.066,1.066,217.417,183.040,168.403
0.027,0.842,1.057,1.058,217.525,183.096,168.394
0.029,0.975,1.058,1.058,217.641,183.156,168.377
0.031,1.114,1.077,1.077,217.763,183.220,168.350
0.033,1.258,1.118,1.118,217.886,183.285,168.313
0.034,1.405,1.180,1.179,218.009,183.349,168.264
0.036,1.555,1.257,1.256,218.129,183.412,168.201
0.038,1.705,1.347,1.346,218.243,183.471,168.123
0.040,1.857,1.445,1.445,218.350,183.525,168.029
0.042,2.012,1.548,1.549,218.445,183.573,167.917
0.044,2.171,1.653,1.656,218.528,183.612,167.786
0.046,2.339,1.759,1.763,218.594,183.641,167.634
0.048,2.519,1.863,1.867,218.643,183.660,167.463
0.050,2.709,1.965,1.966,218.675,183.671,167.275
0.052,2.909,2.060,2.057,218.691,183.677,167.076
0.054,3.115,2.150,2.141,218.693,183.680,166.870
0.056,3.325,2.233,2.220,218.681,183.682,166.661
0.057,3.534,2.309,2.295,218.657,183.686,166.453
0.059,3.739,2.377,2.369,218.620,183.695,166.252
0.061,3.936,2.437,2.444,218.573,183.711,166.061
0.063,4.124,2.488,2.517,218.516,183.737,165.884
0.065,4.298,2.524,2.583,218.451,183.775,165.727
0.067,4.460,2.543,2.635,218.377,183.827,165.593
0.069,4.610,2.540,2.667,218.297,183.896,165.486
0.071,4.754,2.512,2.671,218.211,183.982,165.409
0.073,4.898,2.457,2.644,218.121,184.081,165.356
0.075,5.044,2.385,2.592,218.029,184.190,165.324
0.077,5.192,2.306,2.522,217.937,184.305,165.310
0.079,5.340,2.232,2.442,217.845,184.422,165.309
0.080,5.486,2.172,2.361,217.757,184.537,165.317
0.082,5.625,2.135,2.284,217.673,184.647,165.331
0.084,5.753,2.119,2.217,217.596,184.748,165.347
0.086,5.866,2.115,2.162,217.527,184.837,165.361
0.088,5.960,2.113,2.123,217.468,184.909,165.368
0.090,6.031,2.106,2.101,217.419,184.961,165.366
0.092,6.079,2.084,2.100,217.384,184.989,165.350
0.094,6.117,2.048,2.118,217.361,184.996,165.321
0.096,6.159,2.005,2.151,217.345,184.985,165.283
0.098,6.209,1.963,2.192,217.334,184.964,165.240
0.100,6.262,1.930,2.237,217.321,184.937,165.195
0.102,6.314,1.913,2.281,217.305,184.910,165.153
0.103,6.361,1.915,2.316,217.280,184.890,165.119
0.105,6.406,1.925,2.335,217.243,184.882,165.095
0.107,6.461,1.932,2.330,217.190,184.890,165.087
0.109,6.542,1.925,2.291,217.117,184.923,165.098
0.111,6.662,1.893,2.211,217.019,184.984,165.132
0.113,6.831,1.829,2.086,216.893,185.079,165.194
0.115,7.059,1.743,1.931,216.735,185.214,165.287
0.117,7.341,1.647,1.768,216.548,185.387,165.408
0.119,7.667,1.557,1.616,216.337,185.590,165.552
0.121,8.028,1.486,1.496,216.108,185.817,165.714
0.123,8.413,1.445,1.426,215.866,186.061,165.887
0.125,8.811,1.434,1.405,215.618,186.316,166.065
0.126,9.211,1.446,1.418,215.369,186.574,166.243
0.128,9.604,1.472,1.454,215.125,186.829,166.415
0.130,9.978,1.503,1.498,214.891,187.074,166.574
0.132,10.324,1.533,1.536,214.674,187.302,166.717
0.134,10.630,1.557,1.564,214.479,187.507,166.835
0.136,10.888,1.575,1.583,214.312,187.681,166.924
0.138,11.088,1.589,1.594,214.177,187.820,166.979
0.140,11.237,1.598,1.601,214.075,187.925,167.001
0.142,11.346,1.605,1.604,214.001,188.005,166.996
0.144,11.429,1.609,1.607,213.952,188.065,166.969
0.146,11.500,1.612,1.610,213.924,188.113,166.923
0.148,11.573,1.618,1.616,213.914,188.154,166.864
0.149,11.652,1.628,1.627,213.919,188.196,166.798
0.151,11.739,1.644,1.644,213.936,188.246,166.727
0.153,11.836,1.668,1.669,213.960,188.309,166.659
0.155,11.944,1.700,1.701,213.988,188.393,166.596
0.157,12.070,1.738,1.738,214.017,188.504,166.545
0.159,12.222,1.779,1.780,214.044,188.649,166.509
0.161,12.407,1.824,1.824,214.065,188.833,166.493
0.163,12.626,1.869,1.869,214.081,189.051,166.496
0.165,12.872,1.920,1.920,214.092,189.296,166.515
0.167,13.139,1.981,1.981,214.099,189.561,166.546
0.169,13.421,2.060,2.060,214.102,189.839,166.589
0.170,13.709,2.163,2.163,214.104,190.123,166.639
0.172,13.997,2.295,2.295,214.104,190.406,166.695
0.174,14.277,2.453,2.453,214.103,190.679,166.754
0.176,14.542,2.617,2.617,214.102,190.938,166.812
0.178,14.784,2.768,2.768,214.101,191.173,166.869
0.180,14.996,2.884,2.884,214.103,191.379,166.920
0.182,15.170,2.945,2.945,214.106,191.548,166.963
0.184,15.302,2.941,2.941,214.112,191.675,166.997
0.186,15.395,2.888,2.888,214.119,191.764,167.022
0.188,15.454,2.811,2.811,214.126,191.821,167.038
0.190,15.484,2.733,2.733,214.131,191.849,167.046
0.192,15.490,2.676,2.676,214.132,191.855,167.047
0.193,15.504,2.660,2.660,214.129,191.843,167.042
0.195,15.532,2.683,2.683,214.119,191.819,167.031
0.197,15.572,2.732,2.732,214.101,191.786,167.016
0.199,15.621,2.792,2.792,214.074,191.751,166.997
0.201,15.676,2.852,2.852,214.035,191.718,166.974
0.203,15.739,2.899,2.899,213.984,191.693,166.949
0.205,15.811,2.927,2.927,213.918,191.680,166.922
0.207,15.896,2.941,2.941,213.838,191.682,166.894
0.209,15.993,2.942,2.942,213.746,191.698,166.865
0.211,16.103,2.935,2.935,213.645,191.726,166.836
0.213,16.221,2.921,2.921,213.536,191.763,166.807
0.215,16.345,2.904,2.904,213.424,191.807,166.779
0.216,16.472,2.884,2.884,213.310,191.856,166.751
0.218,16.598,2.864,2.864,213.198,191.907,166.725
0.220,16.721,2.845,2.845,213.089,191.960,166.700
0.222,16.838,2.827,2.827,212.987,192.011,166.677
0.224,16.944,2.813,2.813,212.894,192.058,166.657
0.226,17.036,2.801,2.801,212.814,192.099,166.639
0.228,17.111,2.793,2.793,212.747,192.133,166.625
0.230,17.169,2.786,2.786,212.697,192.157,166.613
0.232,17.209,2.782,2.782,212.661,192.173,166.605
0.234,17.235,2.780,2.780,212.638,192.183,166.600
0.236,17.248,2.778,2.778,212.625,192.187,166.597
0.238,17.251,2.779,2.779,212.623,192.186,166.596
0.239,17.258,2.780,2.780,212.629,192.181,166.597
0.241,17.273,2.781,2.781,212.641,192.173,166.600
0.243,17.294,2.784,2.784,212.659,192.164,166.604
0.245,17.318,2.786,2.786,212.680,192.154,166.610
0.247,17.344,2.789,2.789,212.704,192.144,166.616
0.249,17.370,2.793,2.793,212.728,192.136,166.623
0.251,17.395,2.796,2.796,212.751,192.130,166.630
0.253,17.417,2.799,2.799,212.772,192.128,166.637
0.255,17.437,2.802,2.802,212.790,192.127,166.644
0.257,17.453,2.804,2.804,212.805,192.128,166.649
0.259,17.465,2.806,2.806,212.816,192.130,166.654
0.261,17.472,2.808,2.808,212.822,192.133,166.657
0.262,17.476,2.808,2.808,212.823,192.136,166.658
0.264,17.481,2.807,2.807,212.819,192.138,166.657
0.266,17.493,2.804,2.804,212.807,192.140,166.653
0.268,17.513,2.801,2.801,212.789,192.139,166.645
0.270,17.542,2.796,2.796,212.762,192.137,166.634
0.272,17.580,2.790,2.790,212.728,192.132,166.619
0.274,17.629,2.782,2.782,212.684,192.124,166.600
0.276,17.688,2.774,2.774,212.631,192.114,166.576
0.278,17.755,2.764,2.764,212.571,192.102,166.549
0.280,17.829,2.754,2.754,212.505,192.091,166.518
0.282,17.909,2.743,2.743,212.433,192.082,166.483
0.284,17.993,2.731,2.731,212.357,192.076,166.446
0.285,18.081,2.719,2.719,212.278,192.075,166.407
0.287,18.172,2.707,2.707,212.198,192.080,166.366
0.289,18.265,2.692,2.692,212.117,192.093,166.322
0.291,18.359,2.676,2.676,212.036,192.114,166.278
0.293,18.456,2.657,2.657,211.957,192.147,166.233
0.295,18.555,2.636,2.636,211.881,192.191,166.187
0.297,18.658,2.613,2.613,211.808,192.248,166.141
0.299,18.765,2.590,2.590,211.740,192.317,166.096
0.301,18.876,2.569,2.569,211.677,192.396,166.052
0.303,18.989,2.551,2.551,211.618,192.484,166.011
0.305,19.103,2.536,2.536,211.565,192.577,165.973
0.307,19.217,2.525,2.525,211.517,192.675,165.939
0.308,19.329,2.517,2.517,211.475,192.774,165.910
0.310,19.437,2.511,2.511,211.439,192.873,165.887
0.312,19.540,2.505,2.505,211.409,192.970,165.871
0.314,19.636,2.499,2.499,211.385,193.063,165.863
0.316,19.724,2.491,2.491,211.369,193.150,165.863
0.318,19.804,2.480,2.480,211.360,193.229,165.873
0.320,19.875,2.465,2.465,211.357,193.297,165.892
0.322,19.939,2.445,2.445,211.361,193.356,165.919
0.324,19.996,2.419,2.419,211.367,193.403,165.948
0.326,20.044,2.387,2.387,211.376,193.440,165.977
0.328,20.081,2.355,2.355,211.383,193.466,166.002
0.330,20.104,2.328,2.328,211.388,193.482,166.020
0.331,20.111,2.312,2.312,211.388,193.487,166.025
0.333,20.125,2.313,2.313,211.382,193.480,166.015
0.335,20.162,2.333,2.333,211.366,193.463,165.986
0.337,20.227,2.364,2.364,211.340,193.435,165.933
0.339,20.323,2.394,2.394,211.301,193.396,165.855
0.341,20.455,2.412,2.412,211.247,193.345,165.745
0.343,20.625,2.406,2.406,211.176,193.284,165.604
0.345,20.827,2.367,2.367,211.092,193.214,165.434
0.347,21.054,2.301,2.301,210.996,193.140,165.242
0.349,21.300,2.220,2.220,210.891,193.062,165.033
0.351,21.559,2.140,2.140,210.780,192.985,164.813
0.352,21.822,2.075,2.075,210.665,192.910,164.588
0.354,22.084,2.039,2.039,210.549,192.842,164.363
0.356,22.339,2.034,2.034,210.435,192.782,164.144
0.358,22.578,2.051,2.051,210.325,192.734,163.936
0.360,22.797,2.079,2.079,210.222,192.700,163.746
0.362,22.990,2.109,2.109,210.128,192.684,163.579
0.364,23.151,2.130,2.130,210.047,192.687,163.440
0.366,23.280,2.135,2.135,209.979,192.711,163.333
0.368,23.385,2.130,2.130,209.922,192.754,163.255
0.370,23.477,2.119,2.119,209.873,192.811,163.204
0.372,23.563,2.108,2.108,209.830,192.879,163.174
0.374,23.649,2.103,2.103,209.789,192.955,163.164
0.375,23.739,2.107,2.107,209.749,193.035,163.169
0.377,23.831,2.119,2.119,209.705,193.115,163.187
0.379,23.926,2.136,2.136,209.656,193.192,163.213
0.381,24.022,2.154,2.154,209.599,193.262,163.245
0.383,24.119,2.169,2.169,209.531,193.321,163.280
0.385,24.218,2.178,2.178,209.449,193.367,163.313
0.387,24.325,2.178,2.178,209.351,193.396,163.341
0.389,24.443,2.171,2.171,209.235,193.406,163.363
0.391,24.575,2.157,2.157,209.104,193.402,163.377
0.393,24.721,2.134,2.134,208.959,193.386,163.384
0.395,24.878,2.103,2.103,208.804,193.362,163.384
0.397,25.044,2.067,2.067,208.640,193.335,163.375
0.398,25.217,2.029,2.029,208.470,193.308,163.358
0.400,25.395,1.997,1.997,208.296,193.284,163.334
0.402,25.575,1.976,1.976,208.120,193.267,163.300
0.404,25.755,1.970,1.970,207.944,193.262,163.258
0.406,25.935,1.983,1.983,207.772,193.271,163.207
0.408,26.115,2.011,2.011,207.604,193.298,163.147
0.410,26.297,2.048,2.048,207.444,193.348,163.077
0.412,26.482,2.087,2.087,207.293,193.418,162.999
0.414,26.671,2.125,2.125,207.148,193.505,162.913
0.416,26.865,2.155,2.155,207.009,193.602,162.820
0.418,27.060,2.181,2.181,206.874,193.705,162.721
0.420,27.255,2.209,2.209,206.744,193.806,162.618
0.421,27.447,2.244,2.244,206.616,193.902,162.512
0.423,27.634,2.294,2.294,206.489,193.986,162.403
0.425,27.815,2.363,2.363,206.362,194.053,162.293
0.427,27.988,2.448,2.448,206.235,194.097,162.184
0.429,28.158,2.537,2.537,206.105,194.113,162.075
0.431,28.329,2.617,2.617,205.973,194.095,161.969
0.433,28.509,2.676,2.676,205.836,194.039,161.866
0.435,28.705,2.701,2.701,205.695,193.944,161.768
0.437,28.918,2.690,2.690,205.551,193.817,161.675
0.439,29.147,2.657,2.657,205.406,193.664,161.587
0.441,29.388,2.618,2.618,205.261,193.489,161.506
0.443,29.638,2.589,2.589,205.116,193.300,161.432
0.444,29.891,2.587,2.587,204.974,193.101,161.366
0.446,30.143,2.621,2.621,204.836,192.898,161.309
0.448,30.388,2.680,2.680,204.702,192.698,161.261
0.450,30.622,2.748,2.748,204.575,192.506,161.223
0.452,30.840,2.808,2.808,204.454,192.327,161.195
0.454,31.035,2.843,2.843,204.343,192.167,161.180
0.456,31.204,2.838,2.838,204.241,192.032,161.176
0.458,31.348,2.798,2.798,204.149,191.922,161.183
0.460,31.470,2.739,2.739,204.065,191.834,161.199
0.462,31.576,2.676,2.676,203.989,191.766,161.224
0.464,31.668,2.625,2.625,203.919,191.714,161.255
0.466,31.750,2.601,2.601,203.855,191.677,161.290
0.467,31.825,2.607,2.607,203.796,191.651,161.329
0.469,31.895,2.633,2.633,203.741,191.634,161.368
0.471,31.962,2.665,2.665,203.688,191.623,161.408
0.473,32.025,2.693,2.693,203.637,191.616,161.445
0.475,32.086,2.704,2.704,203.587,191.610,161.479
0.477,32.145,2.691,2.691,203.537,191.602,161.508
0.479,32.202,2.663,2.663,203.485,191.590,161.530
0.481,32.259,2.626,2.626,203.432,191.575,161.544
0.483,32.318,2.589,2.589,203.377,191.555,161.551
0.485,32.380,2.560,2.560,203.318,191.534,161.549
0.487,32.447,2.546,2.546,203.257,191.510,161.539
0.489,32.520,2.547,2.547,203.191,191.486,161.519
0.490,32.600,2.559,2.559,203.120,191.461,161.490
0.492,32.689,2.582,2.582,203.044,191.437,161.451
0.494,32.787,2.610,2.610,202.963,191.415,161.401
0.496,32.896,2.642,2.642,202.875,191.394,161.340
0.498,33.017,2.678,2.678,202.780,191.376,161.268
0.500,33.150,2.718,2.718,202.677,191.362,161.184
0.502,33.296,2.763,2.763,202.567,191.352,161.088
0.504,33.453,2.814,2.814,202.451,191.345,160.983
0.506,33.618,2.871,2.871,202.330,191.343,160.870
0.508,33.788,2.935,2.935,202.208,191.343,160.752
0.510,33.959,3.002,3.002,202.087,191.345,160.632
0.511,34.129,3.069,3.069,201.967,191.349,160.511
0.513,34.294,3.133,3.133,201.853,191.355,160.393
0.515,34.451,3.189,3.189,201.745,191.362,160.279
0.517,34.596,3.237,3.237,201.646,191.369,160.173
0.519,34.728,3.274,3.274,201.558,191.376,160.075
0.521,34.842,3.299,3.299,201.482,191.383,159.990
0.523,34.935,3.314,3.314,201.423,191.389,159.919
0.525,35.005,3.315,3.315,201.379,191.393,159.864
0.527,35.055,3.305,3.305,201.349,191.396,159.823
0.529,35.088,3.286,3.286,201.331,191.398,159.797
0.531,35.105,3.265,3.265,201.322,191.400,159.782
0.533,35.110,3.248,3.248,201.319,191.401,159.778
0.534,35.116,3.242,3.242,201.320,191.403,159.784
0.536,35.130,3.251,3.251,201.322,191.404,159.798
0.538,35.151,3.277,3.277,201.322,191.406,159.819
0.540,35.178,3.310,3.310,201.319,191.408,159.845
0.542,35.211,3.344,3.344,201.308,191.411,159.876
0.544,35.250,3.372,3.372,201.289,191.416,159.909
0.546,35.297,3.387,3.387,201.258,191.422,159.945
0.548,35.354,3.385,3.385,201.214,191.429,159.980
0.550,35.422,3.370,3.370,201.157,191.439,160.017
0.552,35.500,3.347,3.347,201.090,191.451,160.054
0.554,35.586,3.319,3.319,201.014,191.465,160.092
0.556,35.681,3.291,3.291,200.929,191.483,160.131
0.557,35.783,3.266,3.266,200.837,191.503,160.170
0.559,35.891,3.246,3.246,200.740,191.528,160.211
0.561,36.004,3.230,3.230,200.638,191.556,160.252
0.563,36.122,3.219,3.219,200.534,191.588,160.294
0.565,36.242,3.211,3.211,200.427,191.624,160.337
0.567,36.365,3.207,3.207,200.321,191.665,160.382
0.569,36.489,3.206,3.206,200.215,191.712,160.427
0.571,36.614,3.209,3.209,200.110,191.763,160.473
0.573,36.741,3.213,3.213,200.006,191.817,160.520
0.575,36.868,3.219,3.219,199.902,191.875,160.567
0.577,36.997,3.226,3.226,199.798,191.934,160.614
0.579,37.126,3.232,3.232,199.693,191.993,160.660
0.580,37.256,3.236,3.236,199.586,192.052,160.705
0.582,37.387,3.233,3.233,199.477,192.109,160.749
0.584,37.518,3.221,3.221,199.366,192.164,160.791
0.586,37.650,3.198,3.198,199.251,192.215,160.831
0.588,37.782,3.162,3.162,199.132,192.260,160.868
0.590,37.916,3.117,3.117,199.009,192.301,160.902
0.592,38.053,3.066,3.066,198.880,192.334,160.933
0.594,38.192,3.013,3.013,198.746,192.359,160.961
0.596,38.335,2.961,2.961,198.606,192.376,160.984
0.598,38.483,2.914,2.914,198.460,192.384,161.003
0.600,38.637,2.878,2.878,198.307,192.382,161.017
0.602,38.798,2.858,2.858,198.146,192.370,161.027
0.603,38.968,2.859,2.859,197.977,192.348,161.031
0.605,39.148,2.886,2.886,197.800,192.313,161.030
0.607,39.340,2.945,2.945,197.615,192.267,161.023
0.609,39.543,3.031,3.031,197.420,192.208,161.010
0.611,39.761,3.132,3.132,197.216,192.136,160.990
0.613,39.993,3.239,3.239,197.002,192.051,160.964
0.615,40.241,3.339,3.339,196.777,191.950,160.931
0.617,40.504,3.423,3.423,196.543,191.837,160.891
0.619,40.778,3.489,3.489,196.303,191.714,160.846
0.621,41.059,3.547,3.547,196.059,191.582,160.797
0.623,41.346,3.611,3.611,195.813,191.445,160.744
0.625,41.634,3.691,3.691,195.568,191.304,160.689
0.626,41.919,3.801,3.801,195.326,191.163,160.631
0.628,42.200,3.945,3.945,195.090,191.024,160.574
0.630,42.471,4.107,4.107,194.862,190.889,160.517
0.632,42.729,4.265,4.265,194.644,190.761,160.461
0.634,42.972,4.397,4.397,194.440,190.643,160.408
0.636,43.195,4.483,4.483,194.250,190.535,160.357
0.638,43.396,4.505,4.505,194.078,190.442,160.311
0.640,43.575,4.477,4.477,193.923,190.365,160.269
0.642,43.733,4.422,4.422,193.784,190.303,160.228
0.644,43.872,4.365,4.365,193.658,190.259,160.186
0.646,43.997,4.332,4.332,193.544,190.234,160.144
0.648,44.110,4.347,4.347,193.440,190.227,160.098
0.649,44.219,4.409,4.409,193.345,190.241,160.048
0.651,44.329,4.501,4.501,193.257,190.277,159.991
0.653,44.448,4.603,4.603,193.175,190.335,159.926
0.655,44.583,4.696,4.696,193.097,190.415,159.852
0.657,44.738,4.759,4.759,193.021,190.521,159.767
0.659,44.917,4.784,4.784,192.946,190.651,159.670
0.661,45.123,4.780,4.780,192.870,190.807,159.559
0.663,45.352,4.756,4.756,192.794,190.984,159.436
0.665,45.598,4.725,4.725,192.719,191.179,159.305
0.667,45.857,4.696,4.696,192.645,191.386,159.169
0.669,46.123,4.678,4.678,192.573,191.601,159.030
0.670,46.390,4.670,4.670,192.504,191.818,158.891
0.672,46.653,4.668,4.668,192.438,192.034,158.756
0.674,46.906,4.667,4.667,192.377,192.244,158.627
0.676,47.145,4.664,4.664,192.322,192.443,158.508
0.678,47.362,4.655,4.655,192.272,192.625,158.400
0.680,47.553,4.641,4.641,192.230,192.787,158.308
0.682,47.713,4.622,4.622,192.195,192.924,158.234
0.684,47.837,4.602,4.602,192.168,193.033,158.180
0.686,47.930,4.582,4.582,192.149,193.115,158.142
0.688,47.995,4.564,4.564,192.135,193.174,158.116
0.690,48.037,4.550,4.550,192.126,193.211,158.099
0.692,48.061,4.542,4.542,192.120,193.229,158.085
0.693,48.075,4.540,4.540,192.116,193.232,158.072
0.695,48.096,4.545,4.545,192.112,193.221,158.054
0.697,48.130,4.559,4.559,192.109,193.200,158.028
0.699,48.178,4.581,4.581,192.103,193.171,157.990
0.701,48.243,4.609,4.609,192.094,193.137,157.935
0.703,48.328,4.639,4.639,192.081,193.101,157.859
0.705,48.437,4.669,4.669,192.063,193.064,157.759
0.707,48.570,4.694,4.694,192.038,193.030,157.633
0.709,48.725,4.712,4.712,192.009,192.998,157.484
0.711,48.897,4.725,4.725,191.975,192.969,157.317
0.713,49.083,4.734,4.734,191.938,192.943,157.138
0.715,49.277,4.742,4.742,191.899,192.920,156.949
0.716,49.474,4.750,4.750,191.859,192.902,156.756
0.718,49.671,4.761,4.761,191.820,192.887,156.564
0.720,49.863,4.773,4.773,191.782,192.876,156.376
0.722,50.044,4.786,4.786,191.747,192.870,156.198
0.724,50.212,4.795,4.795,191.715,192.868,156.034
0.726,50.360,4.799,4.799,191.688,192.872,155.889
0.728,50.485,4.795,4.795,191.666,192.881,155.766
0.730,50.585,4.783,4.783,191.651,192.895,155.668
0.732,50.665,4.768,4.768,191.641,192.914,155.591
0.734,50.729,4.755,4.755,191.634,192.939,155.532
0.736,50.781,4.748,4.748,191.631,192.967,155.489
0.738,50.826,4.751,4.751,191.630,193.000,155.457
0.739,50.869,4.768,4.768,191.631,193.036,155.434
0.741,50.913,4.795,4.795,191.631,193.076,155.416
0.743,50.959,4.830,4.830,191.630,193.118,155.400
0.745,51.008,4.868,4.868,191.628,193.164,155.382
0.747,51.061,4.905,4.905,191.622,193.212,155.360
0.749,51.120,4.940,4.940,191.613,193.262,155.331
0.751,51.187,4.970,4.970,191.598,193.314,155.290
0.753,51.264,4.996,4.996,191.579,193.367,155.238
0.755,51.349,5.020,5.020,191.556,193.421,155.177
0.757,51.439,5.042,5.042,191.529,193.474,155.108
0.759,51.534,5.062,5.062,191.500,193.526,155.034
0.761,51.630,5.080,5.080,191.470,193.575,154.958
0.762,51.726,5.097,5.097,191.439,193.622,154.880
0.764,51.819,5.111,5.111,191.408,193.665,154.803
0.766,51.907,5.123,5.123,191.379,193.704,154.730
0.768,51.987,5.132,5.132,191.352,193.737,154.663
0.770,52.056,5.139,5.139,191.329,193.764,154.603
0.772,52.114,5.143,5.143,191.309,193.784,154.553
0.774,52.157,5.144,5.144,191.294,193.796,154.515
0.776,52.186,5.142,5.142,191.283,193.801,154.488
0.778,52.203,5.138,5.138,191.277,193.801,154.472
0.780,52.212,5.131,5.131,191.275,193.796,154.464
