"T","Distance","Radius","FreeRadius","X","Y","Z"
0.000,0.000,0.863,0.863,216.844,182.828,168.162
0.001,0.040,0.885,0.885,216.859,182.828,168.200
0.003,0.080,0.908,0.906,216.875,182.829,168.236
0.004,0.120,0.929,0.927,216.895,182.831,168.271
0.005,0.163,0.949,0.947,216.921,182.837,168.304
0.007,0.209,0.967,0.965,216.956,182.847,168.333
0.008,0.262,0.983,0.982,217.000,182.862,168.358
0.009,0.326,0.997,0.996,217.056,182.882,168.379
0.010,0.403,1.007,1.008,217.127,182.910,168.395
0.012,0.496,1.016,1.018,217.213,182.945,168.404
0.013,0.610,1.024,1.028,217.318,182.989,168.405
0.014,0.744,1.036,1.041,217.441,183.043,168.399
0.016,0.895,1.053,1.060,217.578,183.104,168.383
0.017,1.059,1.080,1.086,217.724,183.171,168.354
0.018,1.231,1.118,1.123,217.875,183.241,168.312
0.020,1.408,1.170,1.172,218.026,183.314,168.253
0.021,1.587,1.240,1.237,218.170,183.387,168.175
0.022,1.768,1.326,1.316,218.304,183.459,168.077
0.024,1.950,1.424,1.408,218.421,183.527,167.957
0.025,2.135,1.532,1.510,218.519,183.589,167.812
0.026,2.329,1.646,1.622,218.590,183.645,167.640
0.028,2.538,1.763,1.740,218.633,183.692,167.441
0.029,2.761,1.878,1.863,218.651,183.731,167.222
0.030,2.997,1.990,1.988,218.647,183.764,166.989
0.031,3.241,2.094,2.114,218.624,183.790,166.747
0.033,3.488,2.189,2.238,218.588,183.811,166.504
0.034,3.732,2.275,2.357,218.540,183.828,166.265
0.035,3.967,2.351,2.468,218.485,183.841,166.037
0.037,4.186,2.417,2.569,218.427,183.852,165.826
0.038,4.383,2.471,2.657,218.369,183.860,165.638
0.039,4.550,2.513,2.729,218.314,183.868,165.481
0.041,4.683,2.542,2.782,218.266,183.874,165.356
0.042,4.782,2.558,2.816,218.230,183.880,165.264
0.043,4.847,2.566,2.833,218.207,183.884,165.204
0.045,4.877,2.568,2.838,218.203,183.887,165.174
0.046,4.894,2.567,2.834,218.219,183.888,165.173
0.047,4.944,2.567,2.825,218.261,183.886,165.200
0.049,5.032,2.571,2.815,218.331,183.881,165.254
0.050,5.162,2.583,2.807,218.433,183.873,165.333
0.051,5.334,2.605,2.805,218.570,183.861,165.437
0.052,5.552,2.639,2.810,218.746,183.846,165.565
0.054,5.812,2.681,2.821,218.959,183.826,165.712
0.055,6.103,2.728,2.836,219.200,183.804,165.874
0.056,6.415,2.777,2.855,219.460,183.778,166.045
0.058,6.737,2.826,2.874,219.730,183.751,166.219
0.059,7.059,2.872,2.895,219.999,183.723,166.392
0.060,7.369,2.911,2.913,220.261,183.695,166.556
0.062,7.656,2.941,2.930,220.504,183.666,166.707
0.063,7.911,2.962,2.944,220.720,183.638,166.839
0.064,8.122,2.978,2.957,220.899,183.612,166.947
0.066,8.279,2.989,2.969,221.034,183.588,167.024
0.067,8.381,2.997,2.982,221.122,183.567,167.072
0.068,8.438,3.004,2.994,221.171,183.549,167.095
0.070,8.460,3.013,3.009,221.187,183.536,167.098
0.071,8.476,3.025,3.025,221.178,183.527,167.089
0.072,8.509,3.040,3.044,221.149,183.524,167.071
0.073,8.554,3.059,3.064,221.109,183.528,167.051
0.075,8.604,3.078,3.083,221.063,183.538,167.034
0.076,8.652,3.096,3.101,221.020,183.556,167.026
0.077,8.696,3.112,3.115,220.985,183.582,167.031
0.079,8.744,3.122,3.125,220.965,183.618,167.057
0.080,8.807,3.127,3.127,220.962,183.661,167.102
0.081,8.888,3.123,3.123,220.974,183.711,167.165
0.083,8.986,3.111,3.109,220.999,183.764,167.244
0.084,9.100,3.091,3.090,221.035,183.820,167.336
0.085,9.225,3.066,3.065,221.080,183.875,167.438
0.087,9.358,3.038,3.037,221.132,183.928,167.549
0.088,9.498,3.007,3.006,221.190,183.977,167.667
0.089,9.640,2.975,2.975,221.250,184.020,167.787
0.091,9.781,2.945,2.945,221.312,184.055,167.910
0.092,9.919,2.917,2.917,221.373,184.079,168.031
0.093,10.053,2.891,2.892,221.433,184.093,168.150
0.094,10.182,2.868,2.869,221.490,184.099,168.265
0.096,10.305,2.848,2.848,221.545,184.098,168.376
0.097,10.423,2.829,2.829,221.596,184.090,168.482
0.098,10.533,2.812,2.812,221.644,184.078,168.581
0.100,10.636,2.797,2.797,221.687,184.062,168.672
0.101,10.729,2.782,2.782,221.725,184.044,168.755
0.102,10.811,2.769,2.769,221.757,184.026,168.828
0.104,10.882,2.756,2.756,221.784,184.007,168.891
0.105,10.939,2.744,2.744,221.804,183.990,168.942
0.106,10.985,2.733,2.732,221.818,183.974,168.983
0.108,11.023,2.721,2.721,221.829,183.958,169.015
0.109,11.055,2.710,2.710,221.838,183.939,169.040
0.110,11.084,2.698,2.698,221.846,183.918,169.058
0.112,11.115,2.687,2.687,221.855,183.893,169.073
0.113,11.149,2.675,2.675,221.866,183.863,169.085
0.114,11.191,2.663,2.663,221.882,183.825,169.096
0.115,11.243,2.651,2.651,221.904,183.780,169.107
0.117,11.306,2.640,2.640,221.932,183.726,169.121
0.118,11.382,2.629,2.629,221.970,183.661,169.138
0.119,11.470,2.618,2.618,222.015,183.589,169.159
0.121,11.568,2.609,2.609,222.067,183.511,169.187
0.122,11.672,2.601,2.601,222.123,183.430,169.222
0.123,11.782,2.594,2.594,222.183,183.350,169.266
0.125,11.895,2.588,2.588,222.244,183.271,169.319
0.126,12.010,2.581,2.581,222.306,183.198,169.382
0.127,12.127,2.575,2.575,222.367,183.132,169.458
0.129,12.247,2.567,2.567,222.426,183.077,169.546
0.130,12.371,2.558,2.558,222.480,183.034,169.649
0.131,12.501,2.547,2.547,222.529,183.007,169.767
0.133,12.637,2.533,2.533,222.573,182.994,169.896
0.134,12.779,2.519,2.519,222.610,182.994,170.032
0.135,12.923,2.504,2.504,222.642,183.006,170.172
0.136,13.067,2.490,2.490,222.668,183.029,170.312
0.138,13.208,2.478,2.478,222.687,183.062,170.448
0.139,13.343,2.469,2.469,222.700,183.103,170.576
0.140,13.470,2.464,2.464,222.706,183.153,170.692
0.142,13.585,2.464,2.464,222.705,183.209,170.792
0.143,13.686,2.470,2.470,222.697,183.270,170.873
0.144,13.776,2.479,2.479,222.682,183.336,170.932
0.146,13.858,2.490,2.490,222.662,183.404,170.973
0.147,13.936,2.501,2.501,222.637,183.472,171.000
0.148,14.010,2.510,2.510,222.609,183.539,171.016
0.150,14.081,2.516,2.516,222.580,183.603,171.026
0.151,14.147,2.517,2.517,222.550,183.662,171.033
0.152,14.206,2.510,2.510,222.521,183.713,171.042
0.154,14.258,2.497,2.497,222.495,183.755,171.056
0.155,14.303,2.477,2.477,222.473,183.786,171.079
0.156,14.347,2.452,2.452,222.456,183.805,171.116
0.157,14.401,2.423,2.423,222.444,183.810,171.168
0.159,14.468,2.392,2.392,222.436,183.804,171.234
0.160,14.549,2.358,2.358,222.430,183.789,171.314
0.161,14.643,2.325,2.325,222.423,183.768,171.405
0.163,14.748,2.292,2.292,222.414,183.743,171.506
0.164,14.862,2.259,2.259,222.401,183.718,171.617
0.165,14.984,2.227,2.227,222.381,183.693,171.735
0.167,15.113,2.195,2.195,222.353,183.673,171.859
0.168,15.248,2.163,2.163,222.315,183.658,171.988
0.169,15.390,2.131,2.131,222.264,183.653,172.120
0.171,15.539,2.098,2.098,222.200,183.656,172.255
0.172,15.697,2.064,2.064,222.123,183.663,172.393
0.173,15.865,2.030,2.030,222.036,183.671,172.536
0.175,16.042,1.997,1.997,221.939,183.673,172.684
0.176,16.228,1.967,1.967,221.833,183.666,172.837
0.177,16.426,1.941,1.941,221.720,183.646,172.998
0.178,16.635,1.923,1.923,221.601,183.607,173.165
0.180,16.859,1.912,1.912,221.476,183.545,173.341
0.181,17.101,1.912,1.912,221.348,183.456,173.527
0.182,17.366,1.924,1.924,221.217,183.335,173.721
0.184,17.652,1.947,1.947,221.085,183.183,173.924
0.185,17.954,1.980,1.980,220.953,183.006,174.131
0.186,18.266,2.020,2.020,220.823,182.811,174.338
0.188,18.582,2.063,2.063,220.697,182.605,174.540
0.189,18.893,2.108,2.108,220.575,182.394,174.734
0.190,19.192,2.151,2.151,220.461,182.184,174.914
0.192,19.471,2.191,2.191,220.354,181.984,175.076
0.193,19.723,2.225,2.225,220.258,181.798,175.217
0.194,19.940,2.252,2.252,220.173,181.634,175.332
0.196,20.116,2.273,2.273,220.101,181.499,175.417
0.197,20.250,2.290,2.290,220.042,181.392,175.472
0.198,20.349,2.302,2.302,219.993,181.312,175.503
0.199,20.422,2.310,2.310,219.951,181.254,175.516
0.201,20.475,2.316,2.316,219.914,181.215,175.516
0.202,20.518,2.320,2.320,219.880,181.191,175.507
0.203,20.555,2.322,2.322,219.846,181.180,175.496
0.205,20.593,2.324,2.324,219.810,181.177,175.487
0.206,20.634,2.327,2.327,219.769,181.179,175.486
0.207,20.684,2.331,2.331,219.720,181.183,175.499
0.209,20.749,2.337,2.337,219.663,181.185,175.529
0.210,20.832,2.347,2.347,219.597,181.187,175.579
0.211,20.928,2.361,2.361,219.526,181.191,175.644
0.213,21.035,2.380,2.380,219.455,181.199,175.723
0.214,21.150,2.404,2.404,219.386,181.217,175.814
0.215,21.271,2.435,2.435,219.323,181.245,175.913
0.217,21.396,2.470,2.470,219.270,181.288,176.019
0.218,21.527,2.511,2.511,219.231,181.349,176.128
0.219,21.666,2.557,2.557,219.209,181.430,176.239
0.220,21.818,2.608,2.608,219.208,181.535,176.348
0.222,21.988,2.663,2.663,219.230,181.666,176.454
0.223,22.179,2.723,2.723,219.275,181.821,176.555
0.224,22.387,2.787,2.787,219.337,181.995,176.652
0.226,22.608,2.854,2.854,219.413,182.182,176.743
0.227,22.839,2.922,2.922,219.498,182.378,176.828
0.228,23.072,2.992,2.992,219.588,182.578,176.908
0.230,23.303,3.061,3.061,219.680,182.777,176.980
0.231,23.524,3.129,3.129,219.768,182.970,177.046
0.232,23.731,3.194,3.194,219.848,183.151,177.105
0.234,23.918,3.257,3.257,219.917,183.317,177.155
0.235,24.078,3.316,3.316,219.971,183.462,177.198
0.236,24.214,3.371,3.371,220.011,183.586,177.234
0.238,24.328,3.421,3.421,220.037,183.693,177.263
0.239,24.423,3.465,3.465,220.054,183.784,177.287
0.240,24.503,3.505,3.505,220.062,183.861,177.306
0.241,24.569,3.538,3.538,220.063,183.925,177.322
0.243,24.625,3.564,3.564,220.060,183.980,177.335
0.244,24.673,3.584,3.584,220.054,184.026,177.346
0.245,24.715,3.599,3.599,220.049,184.067,177.357
0.247,24.753,3.609,3.609,220.044,184.103,177.367
0.248,24.789,3.617,3.617,220.044,184.136,177.379
0.249,24.823,3.624,3.624,220.046,184.168,177.392
0.251,24.857,3.630,3.630,220.051,184.199,177.406
0.252,24.891,3.637,3.637,220.057,184.228,177.420
0.253,24.924,3.646,3.646,220.064,184.257,177.436
0.255,24.958,3.658,3.658,220.072,184.285,177.453
0.256,24.992,3.672,3.672,220.078,184.314,177.470
0.257,25.026,3.686,3.686,220.084,184.343,177.488
0.259,25.061,3.700,3.700,220.088,184.372,177.506
0.260,25.098,3.714,3.714,220.089,184.403,177.525
0.261,25.135,3.726,3.726,220.087,184.435,177.545
0.262,25.174,3.735,3.735,220.083,184.468,177.565
0.264,25.214,3.742,3.742,220.077,184.502,177.585
0.265,25.255,3.746,3.746,220.069,184.537,177.606
0.266,25.297,3.748,3.748,220.061,184.572,177.627
0.268,25.338,3.749,3.749,220.053,184.607,177.647
0.269,25.379,3.749,3.749,220.045,184.641,177.668
0.270,25.420,3.749,3.749,220.039,184.676,177.689
0.272,25.459,3.749,3.749,220.035,184.709,177.709
0.273,25.497,3.751,3.751,220.034,184.741,177.730
0.274,25.534,3.754,3.754,220.036,184.773,177.749
0.276,25.571,3.758,3.758,220.039,184.803,177.770
0.277,25.608,3.765,3.765,220.045,184.833,177.790
0.278,25.645,3.772,3.772,220.050,184.863,177.812
0.280,25.684,3.781,3.781,220.056,184.894,177.835
0.281,25.724,3.792,3.792,220.060,184.926,177.859
0.282,25.767,3.804,3.804,220.061,184.959,177.886
0.283,25.813,3.817,3.817,220.060,184.994,177.915
0.285,25.862,3.830,3.830,220.055,185.031,177.948
0.286,25.917,3.844,3.844,220.045,185.071,177.984
0.287,25.976,3.858,3.858,220.030,185.113,178.023
0.289,26.039,3.871,3.871,220.012,185.157,178.064
0.290,26.103,3.882,3.882,219.991,185.201,178.105
0.291,26.167,3.890,3.890,219.969,185.245,178.146
0.293,26.228,3.896,3.896,219.947,185.287,178.184
0.294,26.283,3.898,3.898,219.927,185.326,178.218
0.295,26.333,3.897,3.897,219.909,185.361,178.248
0.297,26.373,3.895,3.895,219.896,185.391,178.271
0.298,26.402,3.891,3.891,219.889,185.416,178.285
0.299,26.420,3.887,3.887,219.888,185.433,178.291
0.301,26.432,3.885,3.885,219.894,185.442,178.288
0.302,26.447,3.884,3.884,219.905,185.446,178.278
0.303,26.465,3.887,3.887,219.917,185.446,178.265
0.304,26.483,3.893,3.893,219.929,185.442,178.252
0.306,26.499,3.902,3.902,219.938,185.437,178.240
0.307,26.508,3.913,3.913,219.942,185.431,178.234
0.308,26.514,3.924,3.924,219.938,185.426,178.236
0.310,26.533,3.934,3.934,219.924,185.424,178.248
0.311,26.570,3.943,3.943,219.898,185.426,178.274
0.312,26.630,3.949,3.949,219.856,185.433,178.316
0.314,26.712,3.952,3.952,219.800,185.445,178.374
0.315,26.812,3.950,3.950,219.730,185.462,178.444
0.316,26.926,3.943,3.943,219.649,185.482,178.522
0.318,27.051,3.931,3.931,219.558,185.506,178.604
0.319,27.182,3.913,3.913,219.459,185.531,178.687
0.320,27.315,3.890,3.890,219.355,185.556,178.766
0.322,27.447,3.860,3.860,219.248,185.582,178.838
0.323,27.575,3.824,3.824,219.138,185.607,178.898
0.324,27.696,3.781,3.781,219.028,185.630,178.943
0.325,27.808,3.734,3.734,218.920,185.649,178.970
0.327,27.914,3.684,3.684,218.817,185.666,178.980
0.328,28.011,3.634,3.634,218.720,185.681,178.982
0.329,28.099,3.588,3.588,218.634,185.694,178.983
0.331,28.174,3.547,3.547,218.560,185.706,178.991
0.332,28.238,3.515,3.515,218.501,185.717,179.013
0.333,28.299,3.494,3.494,218.461,185.729,179.058
0.335,28.378,3.486,3.486,218.441,185.741,179.133
0.336,28.491,3.488,3.488,218.445,185.754,179.245
0.337,28.652,3.498,3.498,218.476,185.770,179.403
0.339,28.870,3.513,3.513,218.534,185.788,179.612
0.340,29.141,3.528,3.528,218.617,185.808,179.869
0.341,29.450,3.542,3.542,218.716,185.832,180.161
0.343,29.784,3.551,3.551,218.822,185.860,180.477
0.344,30.130,3.551,3.551,218.927,185.891,180.805
0.345,30.475,3.542,3.542,219.023,185.927,181.134
0.346,30.804,3.528,3.528,219.101,185.967,181.451
0.348,31.108,3.513,3.513,219.153,186.012,181.747
0.349,31.374,3.499,3.499,219.171,186.061,182.008
0.350,31.598,3.491,3.491,219.146,186.117,182.224
0.352,31.785,3.493,3.493,219.072,186.178,182.384
0.353,31.958,3.509,3.509,218.952,186.243,182.490
0.354,32.139,3.542,3.542,218.795,186.311,182.550
0.356,32.336,3.591,3.591,218.612,186.381,182.569
0.357,32.550,3.652,3.652,218.409,186.450,182.557
0.358,32.775,3.720,3.720,218.198,186.517,182.519
0.360,33.004,3.791,3.791,217.986,186.581,182.463
0.361,33.225,3.861,3.861,217.783,186.640,182.396
0.362,33.430,3.925,3.925,217.598,186.692,182.325
0.364,33.608,3.978,3.978,217.439,186.736,182.258
0.365,33.750,4.017,4.017,217.315,186.771,182.199
0.366,33.857,4.044,4.044,217.223,186.796,182.151
0.367,33.936,4.059,4.059,217.157,186.814,182.111
0.369,33.991,4.065,4.065,217.114,186.825,182.079
0.370,34.028,4.064,4.064,217.088,186.831,182.053
0.371,34.053,4.058,4.058,217.074,186.832,182.032
0.373,34.072,4.050,4.050,217.067,186.831,182.015
0.374,34.088,4.041,4.041,217.063,186.827,182.000
0.375,34.104,4.032,4.032,217.055,186.823,181.986
0.377,34.125,4.025,4.025,217.040,186.820,181.972
0.378,34.155,4.019,4.019,217.013,186.818,181.958
0.379,34.196,4.014,4.014,216.976,186.817,181.942
0.381,34.246,4.010,4.010,216.929,186.816,181.926
0.382,34.302,4.007,4.007,216.875,186.815,181.909
0.383,34.364,4.005,4.005,216.816,186.813,181.891
0.385,34.429,4.005,4.005,216.753,186.810,181.873
0.386,34.496,4.005,4.005,216.689,186.805,181.855
0.387,34.564,4.007,4.007,216.625,186.797,181.837
0.388,34.629,4.009,4.009,216.562,186.785,181.820
0.390,34.692,4.013,4.013,216.504,186.769,181.802
0.391,34.751,4.017,4.017,216.451,186.750,181.786
0.392,34.807,4.022,4.022,216.402,186.728,181.770
0.394,34.859,4.028,4.028,216.357,186.705,181.756
0.395,34.908,4.034,4.034,216.315,186.685,181.743
0.396,34.953,4.040,4.040,216.275,186.667,181.733
0.398,34.994,4.042,4.042,216.236,186.656,181.724
0.399,35.033,4.041,4.041,216.198,186.652,181.718
0.400,35.072,4.034,4.034,216.159,186.657,181.715
0.402,35.116,4.020,4.020,216.119,186.674,181.715
0.403,35.168,3.997,3.997,216.077,186.705,181.719
0.404,35.233,3.963,3.963,216.031,186.751,181.727
0.406,35.314,3.917,3.917,215.981,186.812,181.740
0.407,35.412,3.860,3.860,215.923,186.890,181.759
0.408,35.529,3.794,3.794,215.857,186.983,181.784
0.409,35.668,3.719,3.719,215.780,187.094,181.817
0.411,35.829,3.636,3.636,215.690,187.221,181.859
0.412,36.015,3.546,3.546,215.585,187.365,181.910
0.413,36.227,3.451,3.451,215.464,187.528,181.972
0.415,36.467,3.352,3.352,215.324,187.708,182.046
0.416,36.736,3.250,3.250,215.164,187.907,182.131
0.417,37.033,3.150,3.150,214.984,188.122,182.229
0.419,37.350,3.054,3.054,214.791,188.350,182.335
0.420,37.680,2.966,2.966,214.589,188.586,182.448
0.421,38.015,2.890,2.890,214.385,188.825,182.564
0.423,38.347,2.829,2.829,214.185,189.063,182.680
0.424,38.668,2.786,2.786,213.993,189.294,182.794
0.425,38.971,2.765,2.765,213.817,189.515,182.902
0.427,39.246,2.764,2.764,213.662,189.720,183.001
0.428,39.488,2.779,2.779,213.534,189.905,183.090
0.429,39.689,2.807,2.807,213.438,190.065,183.163
0.430,39.849,2.843,2.843,213.375,190.200,183.222
0.432,39.974,2.884,2.884,213.341,190.311,183.269
0.433,40.072,2.925,2.925,213.329,190.402,183.305
0.434,40.151,2.964,2.964,213.335,190.476,183.333
0.436,40.217,2.996,2.996,213.353,190.535,183.355
0.437,40.274,3.022,3.022,213.378,190.583,183.374
0.438,40.325,3.042,3.042,213.404,190.622,183.392
0.440,40.370,3.055,3.055,213.425,190.656,183.412
0.441,40.410,3.063,3.063,213.438,190.687,183.435
0.442,40.453,3.064,3.064,213.435,190.719,183.464
0.444,40.505,3.061,3.061,213.417,190.752,183.499
0.445,40.566,3.052,3.052,213.386,190.785,183.540
0.446,40.634,3.038,3.038,213.345,190.817,183.584
0.448,40.707,3.021,3.021,213.297,190.848,183.630
0.449,40.782,3.002,3.002,213.245,190.875,183.676
0.450,40.857,2.981,2.981,213.192,190.899,183.722
0.451,40.927,2.961,2.961,213.140,190.918,183.766
0.453,40.989,2.943,2.943,213.094,190.931,183.807
0.454,41.042,2.927,2.927,213.056,190.937,183.842
0.455,41.082,2.916,2.916,213.027,190.936,183.871
0.457,41.112,2.908,2.908,213.010,190.928,183.893
0.458,41.133,2.903,2.903,213.001,190.916,183.909
0.459,41.148,2.900,2.900,213.000,190.904,183.918
0.461,41.159,2.898,2.898,213.003,190.894,183.921
0.462,41.167,2.897,2.897,213.009,190.890,183.918
0.463,41.179,2.894,2.894,213.016,190.894,183.909
0.465,41.201,2.890,2.890,213.023,190.908,183.895
0.466,41.236,2.883,2.883,213.027,190.937,183.875
0.467,41.289,2.873,2.873,213.027,190.983,183.850
0.469,41.361,2.862,2.862,213.020,191.048,183.820
0.470,41.451,2.849,2.849,213.008,191.131,183.786
0.471,41.557,2.834,2.834,212.990,191.229,183.749
0.472,41.673,2.819,2.819,212.969,191.336,183.711
0.474,41.795,2.802,2.802,212.946,191.450,183.672
0.475,41.920,2.786,2.786,212.921,191.567,183.635
0.476,42.044,2.770,2.770,212.895,191.683,183.599
0.478,42.162,2.754,2.754,212.871,191.794,183.568
0.479,42.270,2.738,2.738,212.849,191.896,183.541
0.480,42.365,2.722,2.722,212.830,191.986,183.520
0.482,42.442,2.706,2.706,212.815,192.061,183.506
0.483,42.504,2.691,2.691,212.804,192.121,183.499
0.484,42.554,2.675,2.675,212.796,192.171,183.499
0.486,42.596,2.660,2.660,212.792,192.213,183.503
0.487,42.634,2.645,2.645,212.789,192.249,183.513
0.488,42.671,2.630,2.630,212.788,192.284,183.525
0.490,42.710,2.614,2.614,212.789,192.319,183.541
0.491,42.754,2.597,2.597,212.790,192.359,183.559
0.492,42.805,2.578,2.578,212.791,192.406,183.579
0.493,42.866,2.557,2.557,212.791,192.464,183.599
0.495,42.938,2.534,2.534,212.790,192.534,183.619
0.496,43.023,2.507,2.507,212.790,192.616,183.638
0.497,43.118,2.479,2.479,212.790,192.710,183.656
0.499,43.223,2.448,2.448,212.792,192.813,183.672
0.500,43.336,2.416,2.416,212.798,192.925,183.686
0.501,43.456,2.384,2.384,212.809,193.044,183.697
0.503,43.583,2.351,2.351,212.826,193.169,183.704
0.504,43.715,2.319,2.319,212.849,193.300,183.708
0.505,43.853,2.287,2.287,212.881,193.434,183.706
0.507,43.996,2.257,2.257,212.923,193.570,183.700
0.508,44.143,2.229,2.229,212.974,193.708,183.689
0.509,44.293,2.203,2.203,213.033,193.845,183.673
0.510,44.443,2.179,2.179,213.097,193.980,183.656
0.512,44.591,2.158,2.158,213.164,194.111,183.639
0.513,44.733,2.140,2.140,213.230,194.236,183.623
0.514,44.867,2.125,2.125,213.293,194.354,183.611
0.516,44.990,2.114,2.114,213.350,194.462,183.605
0.517,45.099,2.106,2.106,213.399,194.560,183.605
0.518,45.193,2.100,2.100,213.436,194.645,183.615
0.520,45.270,2.095,2.095,213.460,194.715,183.635
0.521,45.334,2.090,2.090,213.468,194.771,183.667
0.522,45.393,2.085,2.085,213.463,194.812,183.708
0.524,45.452,2.079,2.079,213.447,194.842,183.756
0.525,45.513,2.069,2.069,213.424,194.862,183.809
0.526,45.576,2.057,2.057,213.395,194.874,183.865
0.528,45.639,2.041,2.041,213.365,194.879,183.919
0.529,45.700,2.025,2.025,213.334,194.879,183.972
0.530,45.754,2.007,2.007,213.307,194.877,184.019
0.531,45.800,1.991,1.991,213.285,194.874,184.058
0.533,45.832,1.977,1.977,213.271,194.872,184.088
0.534,45.852,1.967,1.967,213.267,194.872,184.107
