"T","Distance","Radius","FreeRadius","X","Y","Z"
0.000,0.000,0.916,0.916,203.019,184.381,161.197
0.001,0.116,0.937,0.937,203.058,184.333,161.296
0.002,0.231,0.958,0.958,203.096,184.285,161.393
0.004,0.341,0.979,0.979,203.133,184.239,161.486
0.005,0.446,0.998,0.998,203.168,184.194,161.574
0.006,0.542,1.015,1.015,203.200,184.152,161.654
0.007,0.629,1.030,1.030,203.229,184.111,161.726
0.008,0.704,1.043,1.043,203.253,184.074,161.786
0.009,0.765,1.053,1.053,203.273,184.041,161.833
0.011,0.811,1.059,1.059,203.288,184.012,161.865
0.012,0.842,1.062,1.062,203.297,183.987,161.881
0.013,0.862,1.063,1.063,203.300,183.967,161.883
0.014,0.879,1.063,1.063,203.299,183.951,161.877
0.015,0.895,1.061,1.061,203.295,183.938,161.869
0.016,0.907,1.060,1.060,203.290,183.928,161.865
0.018,0.918,1.059,1.059,203.286,183.921,161.871
0.019,0.942,1.061,1.061,203.283,183.915,161.895
0.020,0.989,1.065,1.065,203.284,183.909,161.941
0.021,1.065,1.072,1.072,203.290,183.904,162.017
0.022,1.177,1.084,1.084,203.302,183.899,162.128
0.023,1.329,1.100,1.100,203.322,183.893,162.279
0.025,1.516,1.120,1.120,203.349,183.887,162.464
0.026,1.730,1.146,1.146,203.381,183.883,162.675
0.027,1.964,1.177,1.177,203.417,183.882,162.906
0.028,2.209,1.214,1.214,203.457,183.885,163.148
0.029,2.458,1.257,1.257,203.499,183.892,163.394
0.030,2.705,1.307,1.307,203.541,183.907,163.636
0.032,2.941,1.364,1.364,203.583,183.928,163.867
0.033,3.159,1.425,1.425,203.623,183.959,164.079
0.034,3.353,1.488,1.488,203.660,184.000,164.266
0.035,3.522,1.552,1.552,203.694,184.050,164.423
0.036,3.668,1.613,1.613,203.726,184.109,164.553
0.037,3.795,1.669,1.669,203.756,184.173,164.659
0.039,3.907,1.719,1.719,203.785,184.242,164.743
0.040,4.007,1.760,1.760,203.813,184.314,164.806
0.041,4.097,1.789,1.789,203.842,184.386,164.851
0.042,4.180,1.807,1.808,203.872,184.457,164.881
0.043,4.256,1.816,1.816,203.903,184.525,164.897
0.044,4.328,1.816,1.816,203.936,184.589,164.902
0.046,4.396,1.810,1.810,203.972,184.646,164.898
0.047,4.463,1.800,1.800,204.009,184.700,164.887
0.048,4.529,1.787,1.787,204.046,184.753,164.873
0.049,4.595,1.774,1.774,204.079,184.808,164.856
0.050,4.663,1.762,1.762,204.108,184.868,164.841
0.051,4.734,1.752,1.752,204.131,184.934,164.829
0.053,4.813,1.746,1.746,204.145,185.011,164.823
0.054,4.902,1.743,1.743,204.148,185.101,164.826
0.055,5.009,1.742,1.742,204.140,185.206,164.839
0.056,5.138,1.743,1.743,204.118,185.330,164.866
0.057,5.288,1.747,1.746,204.082,185.471,164.906
0.058,5.456,1.752,1.751,204.036,185.624,164.957
0.060,5.635,1.758,1.758,203.983,185.785,165.014
0.061,5.819,1.765,1.765,203.925,185.948,165.077
0.062,6.002,1.774,1.774,203.866,186.109,165.141
0.063,6.178,1.782,1.782,203.808,186.263,165.204
0.064,6.340,1.791,1.791,203.756,186.405,165.263
0.065,6.482,1.799,1.799,203.712,186.529,165.314
0.067,6.598,1.806,1.807,203.678,186.632,165.356
0.068,6.683,1.813,1.813,203.658,186.709,165.386
0.069,6.740,1.817,1.817,203.649,186.762,165.405
0.070,6.776,1.820,1.820,203.651,186.797,165.415
0.071,6.797,1.821,1.820,203.662,186.815,165.417
0.073,6.816,1.819,1.819,203.679,186.821,165.413
0.074,6.839,1.816,1.815,203.701,186.819,165.406
0.075,6.866,1.811,1.811,203.726,186.811,165.396
0.076,6.895,1.807,1.806,203.751,186.803,165.386
0.077,6.922,1.802,1.801,203.776,186.797,165.377
0.078,6.945,1.799,1.798,203.798,186.798,165.371
0.080,6.965,1.797,1.796,203.816,186.806,165.369
0.081,6.985,1.796,1.796,203.830,186.821,165.369
0.082,7.009,1.799,1.799,203.838,186.843,165.370
0.083,7.037,1.803,1.804,203.840,186.871,165.369
0.084,7.071,1.809,1.811,203.836,186.905,165.368
0.085,7.111,1.815,1.817,203.824,186.943,165.362
0.087,7.158,1.821,1.824,203.804,186.985,165.353
0.088,7.214,1.826,1.829,203.776,187.031,165.337
0.089,7.280,1.829,1.832,203.738,187.079,165.315
0.090,7.356,1.830,1.832,203.690,187.130,165.284
0.091,7.442,1.828,1.828,203.634,187.183,165.248
0.092,7.534,1.823,1.820,203.570,187.237,165.207
0.094,7.633,1.814,1.808,203.501,187.292,165.164
0.095,7.734,1.801,1.793,203.427,187.347,165.122
0.096,7.837,1.784,1.774,203.350,187.403,165.082
0.097,7.939,1.765,1.754,203.271,187.457,165.047
0.098,8.038,1.741,1.731,203.193,187.511,165.019
0.099,8.134,1.715,1.707,203.115,187.563,165.000
0.101,8.225,1.684,1.682,203.040,187.614,164.993
0.102,8.312,1.651,1.656,202.968,187.663,164.996
0.103,8.400,1.615,1.630,202.898,187.715,165.007
0.104,8.490,1.577,1.604,202.830,187.772,165.024
0.105,8.585,1.538,1.579,202.762,187.836,165.042
0.106,8.687,1.500,1.554,202.695,187.911,165.060
0.108,8.799,1.463,1.531,202.628,188.000,165.075
0.109,8.924,1.428,1.509,202.560,188.105,165.083
0.110,9.067,1.397,1.489,202.491,188.229,165.082
0.111,9.230,1.371,1.471,202.419,188.375,165.068
0.112,9.417,1.350,1.455,202.346,188.544,165.040
0.113,9.623,1.333,1.441,202.271,188.732,164.999
0.115,9.842,1.320,1.428,202.200,188.932,164.946
0.116,10.067,1.309,1.416,202.133,189.137,164.883
0.117,10.290,1.300,1.403,202.073,189.341,164.812
0.118,10.507,1.291,1.388,202.023,189.537,164.734
0.119,10.710,1.281,1.372,201.985,189.718,164.652
0.120,10.893,1.270,1.353,201.963,189.879,164.566
0.122,11.052,1.257,1.331,201.958,190.012,164.480
0.123,11.185,1.240,1.305,201.972,190.112,164.393
0.124,11.296,1.223,1.278,202.005,190.177,164.310
0.125,11.396,1.205,1.250,202.052,190.215,164.231
0.126,11.488,1.187,1.223,202.108,190.232,164.159
0.127,11.573,1.173,1.199,202.167,190.234,164.097
0.129,11.650,1.162,1.179,202.224,190.228,164.047
0.130,11.712,1.155,1.164,202.275,190.220,164.012
0.131,11.756,1.155,1.157,202.315,190.217,163.994
0.132,11.780,1.162,1.158,202.338,190.225,163.994
0.133,11.814,1.176,1.166,202.339,190.250,164.017
0.135,11.883,1.195,1.182,202.315,190.297,164.062
0.136,11.987,1.219,1.203,202.269,190.364,164.126
0.137,12.118,1.245,1.229,202.206,190.447,164.205
0.138,12.268,1.273,1.258,202.129,190.540,164.294
0.139,12.431,1.302,1.290,202.043,190.641,164.388
0.140,12.597,1.329,1.322,201.953,190.745,164.483
0.142,12.761,1.354,1.355,201.864,190.847,164.574
0.143,12.913,1.376,1.386,201.779,190.944,164.656
0.144,13.047,1.394,1.416,201.703,191.031,164.725
0.145,13.156,1.410,1.444,201.641,191.104,164.775
0.146,13.237,1.424,1.469,201.594,191.162,164.807
0.147,13.296,1.435,1.491,201.561,191.207,164.823
0.149,13.337,1.445,1.510,201.538,191.242,164.827
0.150,13.367,1.453,1.525,201.525,191.268,164.820
0.151,13.391,1.460,1.536,201.519,191.287,164.807
0.152,13.414,1.466,1.541,201.519,191.302,164.791
0.153,13.435,1.471,1.543,201.523,191.316,164.774
0.154,13.456,1.477,1.541,201.529,191.329,164.760
0.156,13.474,1.482,1.536,201.534,191.345,164.751
0.157,13.494,1.487,1.530,201.538,191.364,164.751
0.158,13.519,1.493,1.524,201.540,191.388,164.758
0.159,13.550,1.499,1.519,201.540,191.416,164.773
0.160,13.588,1.506,1.516,201.538,191.447,164.793
0.161,13.632,1.514,1.516,201.534,191.483,164.818
0.163,13.681,1.524,1.519,201.527,191.521,164.847
0.164,13.734,1.534,1.527,201.518,191.564,164.879
0.165,13.792,1.546,1.538,201.507,191.609,164.913
0.166,13.853,1.558,1.551,201.493,191.657,164.948
0.167,13.917,1.572,1.566,201.477,191.708,164.983
0.168,13.984,1.585,1.583,201.459,191.762,165.018
0.170,14.051,1.599,1.600,201.439,191.817,165.052
0.171,14.120,1.614,1.617,201.418,191.873,165.085
0.172,14.188,1.628,1.633,201.397,191.930,165.116
0.173,14.255,1.642,1.649,201.377,191.986,165.147
0.174,14.321,1.657,1.664,201.357,192.041,165.176
0.175,14.384,1.671,1.678,201.339,192.095,165.204
0.177,14.444,1.685,1.691,201.324,192.147,165.230
0.178,14.499,1.700,1.705,201.311,192.195,165.254
0.179,14.550,1.715,1.718,201.302,192.240,165.277
0.180,14.598,1.730,1.732,201.295,192.282,165.297
0.181,14.643,1.746,1.746,201.291,192.323,165.316
0.182,14.686,1.762,1.762,201.287,192.362,165.334
0.184,14.730,1.779,1.777,201.284,192.402,165.351
0.185,14.774,1.795,1.794,201.280,192.443,165.368
0.186,14.820,1.812,1.811,201.275,192.486,165.384
0.187,14.869,1.829,1.828,201.267,192.532,165.400
0.188,14.922,1.846,1.845,201.256,192.581,165.416
0.189,14.981,1.863,1.862,201.241,192.636,165.432
0.191,15.045,1.879,1.879,201.222,192.695,165.449
0.192,15.113,1.895,1.895,201.201,192.756,165.467
0.193,15.181,1.911,1.911,201.178,192.818,165.484
0.194,15.249,1.925,1.926,201.154,192.880,165.500
0.195,15.314,1.939,1.939,201.130,192.938,165.516
0.196,15.375,1.952,1.952,201.109,192.993,165.530
0.198,15.428,1.963,1.963,201.090,193.041,165.543
0.199,15.472,1.973,1.974,201.075,193.081,165.554
0.200,15.506,1.982,1.982,201.065,193.112,165.562
0.201,15.527,1.989,1.989,201.061,193.132,165.569
0.202,15.540,1.995,1.995,201.061,193.144,165.574
0.204,15.548,1.998,1.998,201.063,193.150,165.578
0.205,15.555,2.001,2.001,201.064,193.154,165.584
0.206,15.564,2.004,2.004,201.063,193.159,165.592
0.207,15.580,2.008,2.008,201.057,193.167,165.603
0.208,15.605,2.014,2.014,201.045,193.183,165.619
0.209,15.644,2.023,2.023,201.024,193.208,165.641
0.211,15.702,2.035,2.035,200.992,193.246,165.670
0.212,15.781,2.051,2.051,200.947,193.300,165.706
0.213,15.882,2.073,2.072,200.889,193.370,165.751
0.214,15.999,2.099,2.099,200.822,193.451,165.802
0.215,16.128,2.128,2.128,200.749,193.541,165.857
0.216,16.263,2.160,2.159,200.673,193.637,165.915
0.218,16.399,2.192,2.192,200.597,193.734,165.975
0.219,16.532,2.224,2.223,200.525,193.828,166.034
0.220,16.656,2.254,2.253,200.460,193.918,166.090
0.221,16.767,2.280,2.279,200.405,193.998,166.143
0.222,16.859,2.301,2.301,200.363,194.065,166.190
0.223,16.930,2.317,2.318,200.337,194.117,166.231
0.225,16.981,2.326,2.328,200.323,194.154,166.262
0.226,17.013,2.330,2.332,200.318,194.178,166.284
0.227,17.028,2.327,2.330,200.317,194.189,166.294
0.228,17.030,2.318,2.321,200.317,194.189,166.292
0.229,17.049,2.303,2.306,200.314,194.179,166.276
0.230,17.087,2.281,2.284,200.303,194.161,166.245
0.232,17.146,2.253,2.255,200.281,194.135,166.197
0.233,17.228,2.219,2.219,200.243,194.104,166.131
0.234,17.336,2.179,2.176,200.186,194.068,166.046
0.235,17.470,2.134,2.128,200.110,194.028,165.943
0.236,17.626,2.085,2.076,200.018,193.987,165.825
0.237,17.798,2.032,2.021,199.913,193.946,165.694
0.239,17.983,1.977,1.966,199.800,193.906,165.554
0.240,18.176,1.921,1.911,199.680,193.868,165.407
0.241,18.371,1.865,1.857,199.560,193.835,165.257
0.242,18.565,1.809,1.807,199.440,193.806,165.108
0.243,18.752,1.754,1.761,199.326,193.785,164.961
0.244,18.928,1.702,1.719,199.221,193.773,164.819
0.246,19.091,1.654,1.683,199.127,193.770,164.686
0.247,19.242,1.609,1.650,199.044,193.776,164.561
0.248,19.383,1.569,1.622,198.970,193.789,164.442
0.249,19.517,1.535,1.597,198.903,193.809,164.327
0.250,19.646,1.507,1.577,198.842,193.836,164.217
0.251,19.772,1.487,1.559,198.785,193.866,164.109
0.253,19.897,1.476,1.546,198.730,193.900,164.002
0.254,20.023,1.472,1.535,198.676,193.937,163.895
0.255,20.150,1.477,1.527,198.621,193.975,163.786
0.256,20.282,1.487,1.524,198.563,194.014,163.674
0.257,20.416,1.501,1.524,198.503,194.052,163.560
0.258,20.552,1.518,1.528,198.442,194.090,163.445
0.260,20.687,1.536,1.536,198.380,194.127,163.331
0.261,20.818,1.554,1.549,198.320,194.162,163.219
0.262,20.945,1.570,1.566,198.262,194.195,163.112
0.263,21.064,1.583,1.588,198.208,194.227,163.010
0.264,21.173,1.591,1.614,198.160,194.255,162.917
0.265,21.271,1.596,1.642,198.118,194.282,162.832
0.267,21.355,1.597,1.670,198.083,194.304,162.759
0.268,21.424,1.596,1.696,198.058,194.324,162.699
0.269,21.479,1.592,1.717,198.041,194.342,162.649
0.270,21.524,1.585,1.732,198.030,194.361,162.609
0.271,21.563,1.577,1.739,198.025,194.383,162.578
0.273,21.599,1.567,1.735,198.025,194.409,162.552
0.274,21.638,1.556,1.719,198.028,194.442,162.532
0.275,21.683,1.545,1.693,198.033,194.483,162.515
0.276,21.738,1.533,1.659,198.039,194.535,162.499
0.277,21.805,1.521,1.621,198.044,194.601,162.484
0.278,21.887,1.509,1.581,198.048,194.681,162.467
0.280,21.983,1.498,1.544,198.051,194.775,162.447
0.281,22.092,1.488,1.511,198.054,194.880,162.422
0.282,22.210,1.480,1.487,198.059,194.994,162.392
0.283,22.335,1.474,1.473,198.067,195.114,162.354
0.284,22.466,1.470,1.473,198.080,195.235,162.308
0.285,22.601,1.467,1.482,198.100,195.356,162.252
0.287,22.739,1.467,1.499,198.127,195.473,162.184
0.288,22.880,1.467,1.520,198.164,195.583,162.103
0.289,23.027,1.468,1.543,198.211,195.684,162.008
0.290,23.180,1.470,1.565,198.271,195.772,161.898
0.291,23.339,1.472,1.583,198.340,195.849,161.777
0.292,23.504,1.474,1.593,198.418,195.914,161.647
0.294,23.670,1.475,1.594,198.500,195.969,161.514
0.295,23.835,1.475,1.585,198.586,196.015,161.381
0.296,23.994,1.475,1.569,198.672,196.053,161.252
0.297,24.145,1.474,1.547,198.756,196.083,161.130
0.298,24.282,1.471,1.523,198.836,196.107,161.021
0.299,24.402,1.468,1.499,198.909,196.125,160.928
0.301,24.501,1.463,1.476,198.973,196.138,160.854
0.302,24.578,1.456,1.459,199.027,196.146,160.800
0.303,24.635,1.448,1.448,199.070,196.151,160.762
0.304,24.676,1.439,1.446,199.103,196.152,160.738
0.305,24.703,1.428,1.452,199.127,196.150,160.724
0.306,24.719,1.416,1.463,199.140,196.145,160.717
0.308,24.729,1.404,1.478,199.142,196.136,160.713
0.309,24.742,1.391,1.493,199.135,196.125,160.710
0.310,24.765,1.379,1.507,199.118,196.112,160.703
0.311,24.799,1.367,1.517,199.091,196.097,160.689
0.312,24.845,1.356,1.522,199.054,196.080,160.666
0.313,24.900,1.347,1.519,199.014,196.064,160.633
0.315,24.959,1.340,1.507,198.976,196.050,160.590
0.316,25.020,1.334,1.487,198.945,196.040,160.539
0.317,25.083,1.329,1.462,198.929,196.037,160.478
0.318,25.153,1.325,1.433,198.932,196.043,160.408
0.319,25.239,1.321,1.403,198.961,196.060,160.329
0.320,25.349,1.318,1.372,199.022,196.090,160.242
0.322,25.493,1.315,1.343,199.120,196.135,160.147
0.323,25.679,1.311,1.318,199.262,196.197,160.044
0.324,25.906,1.307,1.298,199.445,196.276,159.935
0.325,26.165,1.302,1.283,199.660,196.367,159.824
0.326,26.444,1.297,1.273,199.898,196.467,159.716
0.327,26.734,1.291,1.267,200.148,196.572,159.614
0.329,27.023,1.285,1.263,200.401,196.678,159.524
0.330,27.301,1.279,1.261,200.647,196.783,159.448
0.331,27.556,1.272,1.261,200.876,196.880,159.392
0.332,27.780,1.266,1.261,201.079,196.968,159.358
0.333,27.962,1.260,1.260,201.245,197.042,159.353
0.335,28.100,1.254,1.257,201.368,197.100,159.378
0.336,28.207,1.248,1.253,201.453,197.141,159.429
0.337,28.301,1.242,1.249,201.505,197.169,159.502
0.338,28.396,1.237,1.243,201.532,197.184,159.592
0.339,28.498,1.232,1.237,201.541,197.189,159.693
0.340,28.606,1.227,1.231,201.539,197.185,159.801
0.342,28.715,1.223,1.225,201.533,197.174,159.910
0.343,28.822,1.219,1.219,201.529,197.157,160.015
0.344,28.921,1.215,1.215,201.535,197.137,160.112
0.345,29.010,1.212,1.211,201.558,197.115,160.195
0.346,29.093,1.209,1.207,201.599,197.092,160.263
0.347,29.175,1.207,1.205,201.656,197.068,160.318
0.349,29.261,1.205,1.203,201.725,197.044,160.361
0.350,29.351,1.204,1.202,201.805,197.018,160.396
0.351,29.445,1.203,1.202,201.891,196.993,160.423
0.352,29.542,1.203,1.202,201.982,196.967,160.445
0.353,29.639,1.203,1.203,202.073,196.941,160.465
0.354,29.734,1.204,1.205,202.163,196.915,160.483
0.356,29.825,1.206,1.206,202.248,196.889,160.502
0.357,29.910,1.208,1.208,202.326,196.864,160.524
0.358,29.989,1.210,1.210,202.397,196.841,160.550
0.359,30.063,1.211,1.212,202.463,196.821,160.579
0.360,30.134,1.212,1.213,202.524,196.807,160.612
0.361,30.204,1.213,1.213,202.582,196.800,160.649
0.363,30.274,1.212,1.212,202.638,196.802,160.691
0.364,30.348,1.210,1.210,202.693,196.815,160.738
0.365,30.428,1.206,1.206,202.749,196.839,160.790
0.366,30.517,1.202,1.201,202.806,196.878,160.848
0.367,30.620,1.196,1.196,202.865,196.933,160.911
0.368,30.735,1.191,1.190,202.926,197.003,160.979
0.370,30.861,1.185,1.185,202.986,197.087,161.051
0.371,30.994,1.180,1.180,203.044,197.182,161.125
0.372,31.133,1.175,1.175,203.097,197.286,161.199
0.373,31.273,1.172,1.172,203.142,197.398,161.272
0.374,31.414,1.171,1.171,203.178,197.514,161.341
0.375,31.552,1.171,1.171,203.202,197.634,161.405
0.377,31.687,1.172,1.173,203.211,197.755,161.464
0.378,31.817,1.176,1.176,203.204,197.875,161.514
0.379,31.944,1.181,1.181,203.179,197.993,161.555
0.380,32.069,1.188,1.188,203.139,198.108,161.587
0.381,32.196,1.197,1.197,203.088,198.221,161.612
0.382,32.324,1.207,1.207,203.030,198.333,161.631
0.384,32.453,1.218,1.218,202.968,198.445,161.644
0.385,32.581,1.232,1.232,202.906,198.557,161.654
0.386,32.708,1.246,1.246,202.849,198.670,161.661
0.387,32.834,1.262,1.262,202.799,198.785,161.667
0.388,32.957,1.279,1.279,202.761,198.903,161.672
0.389,33.080,1.297,1.297,202.738,199.023,161.678
0.391,33.203,1.316,1.316,202.731,199.146,161.685
0.392,33.326,1.336,1.336,202.736,199.269,161.692
0.393,33.448,1.356,1.356,202.749,199.389,161.700
0.394,33.564,1.376,1.376,202.767,199.505,161.707
0.395,33.674,1.397,1.397,202.785,199.612,161.713
0.396,33.773,1.418,1.418,202.801,199.711,161.717
0.398,33.860,1.439,1.439,202.810,199.796,161.720
0.399,33.931,1.458,1.458,202.809,199.868,161.719
0.400,33.987,1.477,1.477,202.793,199.922,161.716
0.401,34.036,1.494,1.494,202.761,199.957,161.709
0.402,34.087,1.509,1.509,202.715,199.977,161.698
0.404,34.146,1.522,1.522,202.658,199.984,161.685
0.405,34.213,1.533,1.533,202.593,199.982,161.670
0.406,34.284,1.542,1.542,202.524,199.975,161.653
0.407,34.357,1.548,1.548,202.454,199.966,161.635
0.408,34.428,1.554,1.554,202.386,199.959,161.616
0.409,34.493,1.558,1.558,202.324,199.957,161.596
0.411,34.549,1.562,1.562,202.271,199.964,161.577
0.412,34.598,1.567,1.567,202.231,199.982,161.559
0.413,34.644,1.572,1.572,202.203,200.015,161.541
0.414,34.696,1.578,1.578,202.186,200.060,161.522
0.415,34.757,1.587,1.587,202.178,200.117,161.501
0.416,34.829,1.596,1.596,202.176,200.184,161.477
0.418,34.911,1.607,1.607,202.178,200.262,161.448
0.419,35.005,1.619,1.619,202.182,200.348,161.413
0.420,35.108,1.632,1.632,202.186,200.443,161.372
0.421,35.222,1.645,1.645,202.187,200.545,161.322
0.422,35.346,1.658,1.658,202.183,200.653,161.262
0.423,35.479,1.671,1.671,202.172,200.767,161.193
0.425,35.619,1.683,1.683,202.156,200.882,161.115
0.426,35.761,1.695,1.695,202.135,200.995,161.032
0.427,35.901,1.707,1.707,202.111,201.103,160.945
0.428,36.035,1.719,1.719,202.084,201.202,160.859
0.429,36.160,1.730,1.730,202.057,201.289,160.774
0.430,36.270,1.742,1.742,202.029,201.360,160.695
0.432,36.362,1.754,1.754,202.003,201.411,160.622
0.433,36.435,1.768,1.768,201.979,201.440,160.560
0.434,36.489,1.782,1.782,201.959,201.442,160.510
0.435,36.534,1.797,1.797,201.942,201.421,160.474
0.436,36.577,1.813,1.813,201.927,201.388,160.451
0.437,36.618,1.831,1.831,201.911,201.352,160.440
0.439,36.651,1.849,1.849,201.893,201.324,160.442
0.440,36.680,1.869,1.869,201.870,201.314,160.456
0.441,36.723,1.889,1.889,201.841,201.334,160.482
0.442,36.802,1.910,1.910,201.804,201.392,160.519
0.443,36.929,1.931,1.931,201.757,201.500,160.567
0.444,37.117,1.953,1.953,201.697,201.669,160.625
0.446,37.371,1.975,1.975,201.624,201.903,160.694
0.447,37.682,1.997,1.997,201.540,202.192,160.769
0.448,38.033,2.018,2.018,201.446,202.521,160.849
0.449,38.409,2.039,2.039,201.347,202.874,160.932
0.450,38.795,2.058,2.058,201.244,203.237,161.013
0.451,39.174,2.075,2.075,201.140,203.593,161.092
0.453,39.531,2.090,2.090,201.037,203.927,161.165
0.454,39.851,2.102,2.102,200.939,204.225,161.229
0.455,40.118,2.111,2.111,200.848,204.470,161.282
0.456,40.318,2.116,2.116,200.767,204.648,161.321
0.457,40.451,2.120,2.120,200.697,204.758,161.346
0.458,40.531,2.121,2.121,200.639,204.813,161.358
0.460,40.577,2.122,2.122,200.595,204.825,161.359
0.461,40.613,2.122,2.122,200.565,204.808,161.350
0.462,40.653,2.123,2.123,200.550,204.775,161.332
0.463,40.696,2.125,2.125,200.552,204.740,161.307
0.464,40.740,2.129,2.129,200.571,204.714,161.277
0.465,40.790,2.135,2.135,200.608,204.713,161.243
0.467,40.866,2.144,2.144,200.664,204.748,161.206
0.468,40.983,2.154,2.154,200.739,204.830,161.168
0.469,41.141,2.166,2.166,200.831,204.953,161.130
0.470,41.330,2.179,2.179,200.934,205.107,161.093
0.471,41.542,2.193,2.193,201.045,205.283,161.056
0.473,41.766,2.207,2.207,201.160,205.472,161.021
0.474,41.992,2.220,2.220,201.273,205.666,160.989
0.475,42.211,2.232,2.232,201.382,205.853,160.959
0.476,42.413,2.243,2.243,201.482,206.026,160.934
0.477,42.586,2.253,2.253,201.568,206.176,160.913
