"T","Distance","Radius","FreeRadius","X","Y","Z"
0.000,0.000,0.916,0.916,203.019,184.381,161.197
0.001,0.258,0.991,0.991,202.893,184.240,161.022
0.003,0.512,1.067,1.067,202.769,184.100,160.849
0.004,0.761,1.141,1.141,202.647,183.965,160.679
0.005,1.001,1.214,1.214,202.529,183.835,160.516
0.007,1.230,1.287,1.287,202.415,183.712,160.361
0.008,1.444,1.357,1.357,202.306,183.598,160.216
0.009,1.640,1.425,1.425,202.204,183.495,160.083
0.011,1.817,1.491,1.491,202.110,183.405,159.964
0.012,1.970,1.554,1.554,202.025,183.330,159.861
0.013,2.099,1.613,1.613,201.949,183.270,159.776
0.015,2.204,1.665,1.665,201.884,183.225,159.707
0.016,2.289,1.711,1.711,201.827,183.192,159.653
0.017,2.355,1.749,1.749,201.778,183.171,159.613
0.019,2.405,1.777,1.777,201.738,183.159,159.585
0.020,2.443,1.794,1.794,201.705,183.154,159.568
0.021,2.470,1.800,1.800,201.680,183.155,159.559
0.023,2.489,1.796,1.796,201.661,183.160,159.558
0.024,2.505,1.785,1.785,201.648,183.167,159.563
0.025,2.519,1.770,1.770,201.640,183.174,159.573
0.027,2.532,1.754,1.754,201.637,183.181,159.584
0.028,2.545,1.740,1.740,201.637,183.186,159.596
0.029,2.556,1.729,1.729,201.640,183.191,159.605
0.031,2.561,1.726,1.726,201.643,183.193,159.609
0.032,2.565,1.731,1.731,201.646,183.192,159.607
0.033,2.578,1.742,1.742,201.648,183.188,159.595
0.035,2.603,1.759,1.759,201.647,183.180,159.572
0.036,2.642,1.779,1.779,201.642,183.167,159.535
0.037,2.698,1.800,1.800,201.632,183.149,159.482
0.039,2.772,1.822,1.822,201.618,183.125,159.414
0.040,2.862,1.842,1.842,201.599,183.095,159.331
0.041,2.969,1.859,1.859,201.576,183.058,159.234
0.043,3.091,1.874,1.874,201.550,183.012,159.123
0.044,3.229,1.891,1.891,201.520,182.958,159.000
0.046,3.382,1.912,1.912,201.486,182.895,158.865
0.047,3.551,1.939,1.939,201.450,182.821,158.717
0.048,3.734,1.975,1.975,201.411,182.737,158.559
0.050,3.931,2.023,2.023,201.369,182.642,158.391
0.051,4.138,2.084,2.084,201.326,182.539,158.218
0.052,4.348,2.160,2.160,201.283,182.432,158.043
0.054,4.556,2.245,2.245,201.241,182.323,157.870
0.055,4.756,2.336,2.336,201.200,182.217,157.705
0.056,4.943,2.426,2.426,201.162,182.117,157.552
0.058,5.112,2.511,2.511,201.127,182.026,157.414
0.059,5.255,2.586,2.586,201.098,181.948,157.297
0.060,5.369,2.647,2.647,201.074,181.886,157.205
0.062,5.448,2.688,2.688,201.057,181.843,157.141
0.063,5.497,2.710,2.710,201.045,181.816,157.102
0.064,5.519,2.718,2.718,201.040,181.804,157.084
0.066,5.520,2.714,2.714,201.038,181.804,157.084
0.067,5.536,2.702,2.702,201.041,181.813,157.097
0.068,5.564,2.686,2.686,201.046,181.828,157.120
0.070,5.599,2.669,2.669,201.054,181.847,157.148
0.071,5.637,2.654,2.654,201.064,181.867,157.178
0.072,5.671,2.644,2.644,201.074,181.886,157.205
0.074,5.700,2.639,2.639,201.084,181.901,157.227
0.075,5.722,2.638,2.638,201.094,181.912,157.243
0.076,5.737,2.640,2.640,201.102,181.919,157.253
0.078,5.745,2.643,2.643,201.108,181.923,157.258
0.079,5.748,2.648,2.648,201.111,181.922,157.257
0.080,5.755,2.653,2.653,201.110,181.918,157.251
0.082,5.769,2.658,2.658,201.104,181.911,157.240
0.083,5.792,2.662,2.662,201.092,181.900,157.225
0.084,5.822,2.666,2.666,201.074,181.886,157.205
0.086,5.861,2.671,2.671,201.049,181.869,157.181
0.087,5.906,2.677,2.677,201.018,181.849,157.154
0.088,5.956,2.684,2.684,200.984,181.829,157.125
0.090,6.008,2.694,2.694,200.947,181.808,157.095
0.091,6.060,2.706,2.706,200.909,181.788,157.065
0.092,6.110,2.721,2.721,200.873,181.769,157.036
0.094,6.155,2.737,2.737,200.840,181.754,157.009
0.095,6.195,2.753,2.753,200.811,181.742,156.985
0.096,6.225,2.767,2.767,200.788,181.734,156.966
0.098,6.247,2.778,2.778,200.772,181.733,156.952
0.099,6.262,2.784,2.784,200.760,181.735,156.942
0.100,6.276,2.784,2.784,200.749,181.742,156.937
0.102,6.294,2.776,2.776,200.734,181.752,156.935
0.103,6.319,2.760,2.760,200.713,181.764,156.936
0.104,6.354,2.738,2.738,200.681,181.778,156.938
0.106,6.403,2.710,2.710,200.634,181.791,156.943
0.107,6.469,2.679,2.679,200.570,181.805,156.948
0.108,6.556,2.645,2.645,200.483,181.817,156.953
0.110,6.666,2.609,2.609,200.373,181.826,156.958
0.111,6.797,2.574,2.574,200.243,181.834,156.963
0.112,6.940,2.540,2.540,200.100,181.840,156.967
0.114,7.093,2.507,2.507,199.948,181.844,156.971
0.115,7.247,2.477,2.477,199.793,181.846,156.974
0.116,7.399,2.449,2.449,199.642,181.847,156.978
0.118,7.541,2.425,2.425,199.499,181.847,156.981
0.119,7.669,2.404,2.404,199.371,181.846,156.984
0.120,7.777,2.386,2.386,199.263,181.844,156.986
0.122,7.861,2.374,2.374,199.180,181.841,156.989
0.123,7.923,2.365,2.365,199.118,181.839,156.993
0.124,7.968,2.358,2.358,199.073,181.837,156.997
0.126,8.001,2.352,2.352,199.040,181.836,157.004
0.127,8.027,2.346,2.346,199.016,181.836,157.013
0.129,8.052,2.337,2.337,198.996,181.839,157.026
0.130,8.080,2.325,2.325,198.974,181.845,157.043
0.131,8.116,2.307,2.307,198.947,181.855,157.065
0.133,8.163,2.282,2.282,198.911,181.868,157.092
0.134,8.226,2.252,2.252,198.861,181.887,157.125
0.135,8.303,2.219,2.219,198.798,181.908,157.164
0.137,8.392,2.183,2.183,198.723,181.933,157.207
0.138,8.493,2.147,2.147,198.638,181.960,157.255
0.139,8.604,2.112,2.112,198.544,181.988,157.306
0.141,8.722,2.081,2.081,198.443,182.016,157.359
0.142,8.847,2.054,2.054,198.334,182.043,157.414
0.143,8.976,2.033,2.033,198.220,182.068,157.471
0.145,9.109,2.016,2.016,198.103,182.091,157.527
0.146,9.243,2.002,2.002,197.983,182.111,157.584
0.147,9.376,1.989,1.989,197.863,182.127,157.640
0.149,9.506,1.976,1.976,197.746,182.141,157.695
0.150,9.630,1.962,1.962,197.636,182.151,157.751
0.151,9.745,1.945,1.945,197.534,182.159,157.805
0.153,9.850,1.924,1.924,197.445,182.165,157.859
0.154,9.941,1.900,1.900,197.371,182.168,157.912
0.155,10.018,1.875,1.875,197.315,182.170,157.965
0.157,10.081,1.851,1.851,197.280,182.170,158.017
0.158,10.133,1.831,1.831,197.268,182.169,158.068
0.159,10.180,1.815,1.815,197.273,182.167,158.114
0.161,10.221,1.806,1.806,197.288,182.164,158.153
0.162,10.255,1.805,1.805,197.309,182.162,158.179
0.163,10.276,1.813,1.813,197.327,182.161,158.191
0.165,10.288,1.826,1.826,197.336,182.161,158.184
0.166,10.318,1.840,1.840,197.330,182.164,158.155
0.167,10.380,1.850,1.850,197.303,182.169,158.100
0.169,10.482,1.853,1.853,197.247,182.177,158.015
0.170,10.628,1.845,1.845,197.158,182.190,157.900
0.171,10.810,1.821,1.821,197.040,182.208,157.762
0.173,11.019,1.778,1.778,196.896,182.234,157.613
0.174,11.244,1.719,1.719,196.732,182.269,157.463
0.175,11.477,1.652,1.652,196.552,182.315,157.323
0.177,11.709,1.582,1.582,196.361,182.375,157.204
0.178,11.937,1.518,1.518,196.164,182.450,157.117
0.179,12.160,1.465,1.465,195.966,182.541,157.072
0.181,12.384,1.431,1.431,195.772,182.652,157.080
0.182,12.621,1.422,1.422,195.585,182.782,157.149
0.183,12.880,1.443,1.443,195.407,182.926,157.269
0.185,13.159,1.486,1.486,195.240,183.079,157.430
0.186,13.450,1.545,1.545,195.083,183.236,157.619
0.187,13.744,1.614,1.614,194.938,183.389,157.825
0.189,14.031,1.685,1.685,194.807,183.534,158.035
0.190,14.300,1.752,1.752,194.689,183.663,158.239
0.191,14.538,1.808,1.808,194.586,183.772,158.423
0.193,14.733,1.845,1.845,194.498,183.855,158.577
0.194,14.877,1.865,1.865,194.427,183.907,158.690
0.195,14.976,1.870,1.870,194.369,183.932,158.767
0.197,15.040,1.864,1.864,194.323,183.937,158.812
0.198,15.084,1.851,1.851,194.285,183.926,158.830
0.199,15.121,1.835,1.835,194.253,183.906,158.828
0.201,15.162,1.820,1.820,194.224,183.882,158.811
0.202,15.207,1.809,1.809,194.196,183.861,158.784
0.203,15.252,1.805,1.805,194.166,183.848,158.753
0.205,15.298,1.807,1.807,194.131,183.849,158.724
0.206,15.349,1.813,1.813,194.089,183.868,158.700
0.207,15.412,1.821,1.821,194.041,183.903,158.682
0.209,15.486,1.828,1.828,193.987,183.952,158.669
0.210,15.569,1.834,1.834,193.930,184.012,158.660
0.212,15.659,1.836,1.836,193.870,184.079,158.654
0.213,15.754,1.832,1.832,193.808,184.151,158.650
0.214,15.850,1.822,1.822,193.745,184.224,158.647
0.216,15.945,1.807,1.807,193.683,184.295,158.644
0.217,16.035,1.790,1.790,193.622,184.361,158.640
0.218,16.118,1.773,1.773,193.564,184.421,158.634
0.220,16.195,1.755,1.755,193.508,184.472,158.626
0.221,16.266,1.740,1.740,193.451,184.514,158.615
0.222,16.334,1.729,1.729,193.394,184.548,158.600
0.224,16.401,1.723,1.723,193.335,184.572,158.582
0.225,16.469,1.720,1.720,193.272,184.587,158.559
0.226,16.542,1.716,1.716,193.204,184.591,158.532
0.228,16.623,1.708,1.708,193.131,184.585,158.499
0.229,16.714,1.694,1.694,193.050,184.569,158.461
0.230,16.817,1.671,1.671,192.961,184.541,158.417
0.232,16.932,1.636,1.636,192.864,184.504,158.367
0.233,17.060,1.586,1.586,192.759,184.457,158.312
0.234,17.199,1.521,1.521,192.645,184.402,158.253
0.236,17.349,1.445,1.445,192.524,184.339,158.190
0.237,17.510,1.365,1.365,192.396,184.270,158.124
0.238,17.680,1.284,1.284,192.260,184.196,158.054
0.240,17.858,1.207,1.207,192.116,184.117,157.982
0.241,18.045,1.139,1.139,191.966,184.035,157.909
0.242,18.238,1.084,1.084,191.809,183.950,157.835
0.244,18.435,1.047,1.047,191.646,183.866,157.763
0.245,18.631,1.026,1.026,191.478,183.785,157.699
0.246,18.825,1.019,1.019,191.308,183.711,157.645
0.248,19.014,1.023,1.023,191.136,183.645,157.606
0.249,19.196,1.037,1.037,190.963,183.592,157.586
0.250,19.372,1.056,1.056,190.790,183.553,157.588
0.252,19.546,1.080,1.080,190.620,183.533,157.618
0.253,19.724,1.104,1.104,190.453,183.534,157.678
0.254,19.913,1.129,1.129,190.290,183.556,157.770
0.256,20.114,1.153,1.153,190.133,183.596,157.891
0.257,20.324,1.176,1.176,189.985,183.646,158.031
0.258,20.537,1.198,1.198,189.845,183.699,158.183
0.260,20.746,1.218,1.218,189.717,183.749,158.339
0.261,20.943,1.236,1.236,189.602,183.790,158.493
0.262,21.120,1.252,1.252,189.501,183.813,158.637
0.264,21.272,1.266,1.266,189.416,183.813,158.763
0.265,21.396,1.276,1.276,189.349,183.783,158.863
0.266,21.503,1.284,1.284,189.300,183.718,158.933
0.268,21.614,1.289,1.289,189.263,183.622,158.974
0.269,21.738,1.290,1.290,189.234,183.503,158.992
0.270,21.878,1.288,1.288,189.204,183.366,158.991
0.272,22.031,1.282,1.282,189.168,183.218,158.975
0.273,22.193,1.273,1.273,189.118,183.066,158.950
0.274,22.362,1.260,1.260,189.049,182.915,158.919
0.276,22.535,1.246,1.246,188.953,182.774,158.888
0.277,22.717,1.233,1.233,188.825,182.647,158.861
0.278,22.914,1.222,1.222,188.661,182.541,158.841
0.280,23.127,1.217,1.217,188.468,182.453,158.829
0.281,23.350,1.219,1.219,188.257,182.381,158.821
0.282,23.576,1.230,1.230,188.038,182.323,158.818
0.284,23.797,1.251,1.251,187.823,182.275,158.817
0.285,24.003,1.282,1.282,187.620,182.234,158.816
0.286,24.185,1.320,1.320,187.443,182.198,158.814
0.288,24.332,1.359,1.359,187.299,182.165,158.809
0.289,24.436,1.398,1.398,187.201,182.130,158.799
0.290,24.497,1.433,1.433,187.155,182.093,158.785
0.292,24.538,1.460,1.460,187.151,182.057,158.767
0.293,24.581,1.477,1.477,187.175,182.026,158.748
0.295,24.627,1.481,1.481,187.213,182.005,158.733
0.296,24.668,1.476,1.476,187.251,181.997,158.723
0.297,24.695,1.468,1.468,187.276,182.008,158.721
0.299,24.730,1.459,1.459,187.274,182.041,158.731
0.300,24.808,1.454,1.454,187.231,182.102,158.754
0.301,24.949,1.458,1.458,187.132,182.194,158.795
0.303,25.163,1.475,1.475,186.970,182.319,158.856
0.304,25.438,1.509,1.509,186.754,182.470,158.935
0.305,25.757,1.557,1.557,186.498,182.637,159.030
0.307,26.103,1.615,1.615,186.220,182.808,159.142
0.308,26.458,1.676,1.676,185.932,182.974,159.267
0.309,26.805,1.734,1.734,185.651,183.125,159.405
0.311,27.130,1.783,1.783,185.392,183.251,159.553
0.312,27.417,1.818,1.818,185.169,183.341,159.711
0.313,27.659,1.833,1.833,184.998,183.385,159.877
0.315,27.863,1.824,1.824,184.889,183.375,160.049
0.316,28.055,1.794,1.794,184.836,183.318,160.224
0.317,28.257,1.748,1.748,184.829,183.222,160.402
0.319,28.477,1.691,1.691,184.856,183.095,160.579
0.320,28.711,1.627,1.627,184.907,182.946,160.753
0.321,28.955,1.562,1.562,184.970,182.784,160.922
0.323,29.197,1.499,1.499,185.036,182.616,161.084
0.324,29.428,1.444,1.444,185.094,182.451,161.236
0.325,29.639,1.399,1.399,185.132,182.299,161.376
0.327,29.823,1.363,1.363,185.144,182.165,161.502
0.328,29.984,1.336,1.336,185.130,182.049,161.614
0.329,30.127,1.320,1.320,185.097,181.950,161.711
0.331,30.254,1.312,1.312,185.050,181.865,161.793
0.332,30.369,1.314,1.314,184.993,181.792,161.860
0.333,30.470,1.326,1.326,184.932,181.729,161.912
0.335,30.559,1.346,1.346,184.873,181.674,161.948
0.336,30.634,1.372,1.372,184.819,181.624,161.968
0.337,30.696,1.400,1.400,184.778,181.579,161.972
0.339,30.749,1.426,1.426,184.750,181.535,161.961
0.340,30.801,1.446,1.446,184.731,181.493,161.938
0.341,30.855,1.458,1.458,184.712,181.451,161.910
0.343,30.912,1.457,1.457,184.685,181.409,161.880
0.344,30.978,1.439,1.439,184.642,181.368,161.855
0.345,31.059,1.407,1.407,184.574,181.325,161.838
0.347,31.169,1.365,1.365,184.474,181.282,161.837
0.348,31.318,1.322,1.322,184.333,181.237,161.854
0.349,31.519,1.284,1.284,184.142,181.190,161.896
0.351,31.778,1.257,1.257,183.897,181.140,161.966
0.352,32.088,1.247,1.247,183.607,181.086,162.060
0.353,32.436,1.263,1.263,183.284,181.027,162.174
0.355,32.809,1.308,1.308,182.939,180.961,162.301
0.356,33.195,1.380,1.380,182.586,180.887,162.438
0.357,33.582,1.473,1.473,182.235,180.803,162.577
0.359,33.958,1.580,1.580,181.898,180.708,162.715
0.360,34.310,1.696,1.696,181.589,180.601,162.846
0.361,34.629,1.815,1.815,181.319,180.480,162.965
0.363,34.909,1.930,1.930,181.097,180.345,163.068
0.364,35.154,2.036,2.036,180.920,180.199,163.156
0.365,35.371,2.130,2.130,180.783,180.049,163.231
0.367,35.564,2.211,2.211,180.681,179.898,163.296
0.368,35.737,2.281,2.281,180.608,179.752,163.354
0.369,35.891,2.340,2.340,180.558,179.617,163.407
0.371,36.026,2.387,2.387,180.527,179.496,163.458
0.372,36.140,2.425,2.425,180.507,179.396,163.508
0.373,36.233,2.453,2.453,180.495,179.320,163.561
0.375,36.307,2.472,2.472,180.485,179.274,163.619
0.376,36.372,2.483,2.483,180.476,179.252,163.679
0.378,36.434,2.487,2.487,180.467,179.250,163.740
0.379,36.497,2.486,2.486,180.459,179.262,163.801
0.380,36.560,2.482,2.482,180.450,179.283,163.860
0.382,36.621,2.474,2.474,180.440,179.308,163.914
0.383,36.675,2.466,2.466,180.429,179.332,163.962
0.384,36.720,2.457,2.457,180.416,179.350,164.002
0.386,36.754,2.449,2.449,180.401,179.355,164.031
0.387,36.782,2.441,2.441,180.384,179.345,164.051
0.388,36.811,2.432,2.432,180.366,179.327,164.065
0.390,36.839,2.421,2.421,180.351,179.308,164.079
0.391,36.865,2.407,2.407,180.341,179.298,164.101
0.392,36.900,2.389,2.389,180.340,179.305,164.136
0.394,36.965,2.366,2.366,180.348,179.338,164.191
0.395,37.071,2.337,2.337,180.371,179.404,164.271
0.396,37.233,2.305,2.305,180.409,179.513,164.384
0.398,37.460,2.274,2.274,180.465,179.673,164.535
0.399,37.760,2.246,2.246,180.542,179.889,164.729
0.400,38.120,2.227,2.227,180.635,180.152,164.957
0.402,38.523,2.219,2.219,180.741,180.446,165.210
0.403,38.951,2.227,2.227,180.855,180.760,165.479
0.404,39.387,2.253,2.253,180.971,181.079,165.752
0.406,39.814,2.300,2.300,181.087,181.389,166.021
0.407,40.214,2.363,2.363,181.196,181.678,166.276
0.408,40.570,2.437,2.437,181.296,181.930,166.506
0.410,40.865,2.515,2.515,181.380,182.134,166.703
0.411,41.087,2.593,2.593,181.446,182.279,166.857
0.412,41.242,2.665,2.665,181.496,182.369,166.973
0.414,41.343,2.726,2.726,181.531,182.415,167.056
0.415,41.404,2.770,2.770,181.554,182.423,167.112
0.416,41.445,2.798,2.798,181.568,182.405,167.145
0.418,41.487,2.812,2.812,181.575,182.367,167.162
0.419,41.535,2.815,2.815,181.578,182.319,167.167
0.420,41.584,2.810,2.810,181.579,182.270,167.167
0.422,41.625,2.799,2.799,181.581,182.229,167.167
0.423,41.653,2.787,2.787,181.586,182.202,167.172
0.424,41.669,2.775,2.775,181.591,182.191,167.183
0.426,41.688,2.766,2.766,181.594,182.196,167.201
0.427,41.723,2.761,2.761,181.592,182.218,167.228
0.428,41.775,2.762,2.762,181.583,182.255,167.264
0.430,41.848,2.767,2.767,181.564,182.308,167.310
0.431,41.943,2.780,2.780,181.532,182.376,167.368
0.432,42.062,2.799,2.799,181.485,182.460,167.437
0.434,42.207,2.826,2.826,181.419,182.560,167.521
0.435,42.379,2.861,2.861,181.335,182.674,167.617
0.436,42.571,2.904,2.904,181.235,182.800,167.722
0.438,42.775,2.950,2.950,181.125,182.933,167.830
0.439,42.984,2.998,2.998,181.010,183.071,167.937
0.440,43.188,3.043,3.043,180.896,183.208,168.035
0.442,43.380,3.084,3.084,180.787,183.342,168.121
0.443,43.552,3.116,3.116,180.691,183.468,168.188
0.444,43.698,3.137,3.137,180.610,183.582,168.231
0.446,43.814,3.144,3.144,180.552,183.681,168.245
0.447,43.904,3.139,3.139,180.519,183.762,168.226
0.448,43.980,3.124,3.124,180.506,183.825,168.184
0.450,44.050,3.100,3.100,180.506,183.869,168.130
0.451,44.111,3.070,3.070,180.511,183.897,168.076
0.452,44.157,3.036,3.036,180.515,183.909,168.032
0.454,44.178,3.000,3.000,180.510,183.904,168.011
0.455,44.210,2.963,2.963,180.489,183.885,168.025
0.456,44.290,2.927,2.927,180.445,183.852,168.083
0.458,44.435,2.894,2.894,180.371,183.805,168.198
0.459,44.654,2.866,2.866,180.261,183.746,168.378
0.461,44.935,2.843,2.843,180.122,183.676,168.611
0.462,45.260,2.827,2.827,179.962,183.600,168.884
0.463,45.613,2.819,2.819,179.789,183.519,169.181
0.465,45.976,2.822,2.822,179.613,183.436,169.488
0.466,46.333,2.834,2.834,179.441,183.354,169.790
0.467,46.667,2.856,2.856,179.282,183.276,170.073
0.469,46.960,2.882,2.882,179.144,183.205,170.322
0.470,47.196,2.911,2.911,179.037,183.143,170.522
0.471,47.362,2.939,2.939,178.964,183.092,170.663
0.473,47.466,2.963,2.963,178.922,183.055,170.751
0.474,47.520,2.980,2.980,178.902,183.033,170.796
0.475,47.536,2.987,2.987,178.896,183.026,170.808
0.477,47.550,2.984,2.984,178.895,183.037,170.799
0.478,47.586,2.972,2.972,178.892,183.066,170.777
0.479,47.642,2.956,2.956,178.878,183.114,170.754
0.481,47.719,2.938,2.938,178.846,183.183,170.740
0.482,47.828,2.923,2.923,178.786,183.275,170.744
0.483,47.978,2.912,2.912,178.694,183.388,170.776
0.485,48.165,2.909,2.909,178.573,183.519,170.831
0.486,48.381,2.917,2.917,178.430,183.664,170.905
0.487,48.617,2.936,2.936,178.272,183.815,170.992
0.489,48.864,2.962,2.962,178.105,183.970,171.089
0.490,49.111,2.993,2.993,177.936,184.121,171.188
0.491,49.350,3.028,3.028,177.771,184.263,171.286
0.493,49.571,3.063,3.063,177.617,184.393,171.376
0.494,49.763,3.097,3.097,177.480,184.503,171.455
0.495,49.920,3.127,3.127,177.366,184.591,171.517
0.497,50.043,3.152,3.152,177.275,184.658,171.564
0.498,50.135,3.171,3.171,177.204,184.707,171.596
0.499,50.199,3.187,3.187,177.153,184.740,171.616
0.501,50.239,3.198,3.198,177.119,184.760,171.626
0.502,50.260,3.205,3.205,177.102,184.771,171.626
0.503,50.268,3.209,3.209,177.099,184.774,171.619
0.505,50.284,3.210,3.210,177.109,184.774,171.607
0.506,50.311,3.209,3.209,177.130,184.772,171.590
0.507,50.347,3.205,3.205,177.161,184.770,171.571
0.509,50.385,3.198,3.198,177.193,184.771,171.552
0.510,50.417,3.185,3.185,177.220,184.773,171.534
0.511,50.438,3.168,3.168,177.234,184.778,171.519
0.513,50.451,3.144,3.144,177.228,184.785,171.510
0.514,50.487,3.112,3.112,177.193,184.794,171.508
0.515,50.559,3.073,3.073,177.123,184.806,171.515
0.517,50.675,3.026,3.026,177.009,184.821,171.533
0.518,50.844,2.976,2.976,176.844,184.839,171.564
0.519,51.070,2.925,2.925,176.624,184.860,171.608
0.521,51.341,2.878,2.878,176.359,184.883,171.664
0.522,51.644,2.840,2.840,176.064,184.907,171.728
0.523,51.963,2.813,2.813,175.753,184.931,171.797
0.525,52.285,2.803,2.803,175.440,184.953,171.867
0.526,52.595,2.813,2.813,175.138,184.972,171.935
0.527,52.878,2.840,2.840,174.863,184.986,171.997
0.529,53.119,2.881,2.881,174.627,184.995,172.051
0.530,53.305,2.928,2.928,174.446,184.997,172.092
0.531,53.426,2.977,2.977,174.329,184.992,172.119
0.533,53.491,3.022,3.022,174.266,184.981,172.134
0.534,53.517,3.058,3.058,174.244,184.969,172.139
0.535,53.529,3.078,3.078,174.249,184.958,172.138
0.537,53.549,3.081,3.081,174.267,184.952,172.134
0.538,53.567,3.070,3.070,174.286,184.953,172.129
0.539,53.580,3.052,3.052,174.290,184.965,172.128
0.541,53.616,3.034,3.034,174.266,184.991,172.133
0.542,53.696,3.020,3.020,174.200,185.035,172.146
0.544,53.830,3.019,3.019,174.084,185.097,172.171
0.545,54.012,3.035,3.035,173.923,185.175,172.206
0.546,54.229,3.074,3.074,173.730,185.264,172.248
