"T","Distance","Radius","FreeRadius","X","Y","Z"
0.000,0.000,0.866,0.866,216.793,183.219,168.892
0.002,0.158,0.959,0.959,216.887,183.286,168.784
0.003,0.311,1.047,1.047,216.978,183.349,168.678
0.005,0.455,1.130,1.130,217.063,183.406,168.577
0.006,0.584,1.202,1.202,217.140,183.454,168.484
0.008,0.695,1.262,1.262,217.205,183.489,168.401
0.009,0.784,1.305,1.305,217.255,183.508,168.331
0.011,0.848,1.330,1.330,217.288,183.508,168.276
0.013,0.893,1.335,1.335,217.301,183.486,168.240
0.014,0.944,1.324,1.324,217.291,183.439,168.223
0.016,1.028,1.300,1.300,217.255,183.363,168.229
0.017,1.158,1.267,1.267,217.190,183.256,168.261
0.019,1.338,1.228,1.228,217.095,183.114,168.321
0.020,1.566,1.185,1.185,216.971,182.942,168.405
0.022,1.833,1.142,1.142,216.824,182.746,168.509
0.024,2.128,1.102,1.102,216.659,182.532,168.628
0.025,2.444,1.069,1.069,216.481,182.305,168.758
0.027,2.771,1.044,1.044,216.296,182.072,168.894
0.028,3.100,1.032,1.032,216.109,181.839,169.032
0.030,3.422,1.036,1.036,215.924,181.613,169.166
0.031,3.727,1.057,1.057,215.748,181.398,169.292
0.033,4.006,1.094,1.094,215.584,181.202,169.405
0.034,4.251,1.141,1.141,215.439,181.031,169.501
0.036,4.452,1.192,1.192,215.317,180.889,169.575
0.038,4.608,1.243,1.243,215.219,180.779,169.625
0.039,4.724,1.286,1.286,215.142,180.696,169.653
0.041,4.806,1.318,1.318,215.083,180.638,169.659
0.042,4.864,1.334,1.334,215.042,180.602,169.644
0.044,4.912,1.336,1.336,215.014,180.584,169.609
0.045,4.969,1.327,1.327,214.998,180.582,169.554
0.047,5.043,1.310,1.310,214.991,180.593,169.481
0.049,5.137,1.286,1.286,214.990,180.612,169.389
0.050,5.248,1.259,1.259,214.993,180.638,169.281
0.052,5.376,1.231,1.231,214.998,180.667,169.156
0.053,5.520,1.203,1.203,215.002,180.696,169.016
0.055,5.676,1.177,1.177,215.003,180.724,168.862
0.056,5.842,1.154,1.154,215.001,180.749,168.698
0.058,6.015,1.136,1.136,214.995,180.773,168.527
0.060,6.192,1.123,1.123,214.984,180.795,168.351
0.061,6.370,1.117,1.117,214.967,180.814,168.175
0.063,6.547,1.117,1.117,214.945,180.832,168.001
0.064,6.718,1.123,1.123,214.915,180.847,167.833
0.066,6.882,1.132,1.132,214.877,180.860,167.674
0.067,7.037,1.141,1.141,214.831,180.871,167.527
0.069,7.180,1.149,1.149,214.775,180.879,167.396
0.071,7.310,1.153,1.153,214.710,180.885,167.282
0.072,7.430,1.153,1.153,214.635,180.889,167.189
0.074,7.542,1.150,1.150,214.551,180.891,167.115
0.075,7.649,1.146,1.146,214.462,180.892,167.055
0.077,7.754,1.144,1.144,214.368,180.892,167.010
0.078,7.856,1.148,1.148,214.272,180.893,166.975
0.080,7.956,1.159,1.159,214.175,180.894,166.949
0.082,8.053,1.181,1.181,214.081,180.897,166.929
0.083,8.146,1.214,1.214,213.989,180.902,166.913
0.085,8.233,1.253,1.253,213.903,180.909,166.899
0.086,8.314,1.295,1.295,213.825,180.920,166.883
0.088,8.387,1.335,1.335,213.756,180.935,166.865
0.089,8.453,1.371,1.371,213.697,180.955,166.841
0.091,8.514,1.397,1.397,213.648,180.978,166.813
0.092,8.573,1.411,1.411,213.607,181.005,166.780
0.094,8.630,1.416,1.416,213.572,181.034,166.746
0.096,8.687,1.414,1.414,213.542,181.065,166.709
0.097,8.743,1.408,1.408,213.515,181.097,166.671
0.099,8.800,1.402,1.402,213.490,181.130,166.634
0.100,8.855,1.400,1.400,213.464,181.163,166.597
0.102,8.910,1.403,1.403,213.437,181.196,166.562
0.103,8.965,1.412,1.412,213.406,181.227,166.529
0.105,9.019,1.428,1.428,213.370,181.256,166.500
0.107,9.075,1.448,1.448,213.328,181.283,166.476
0.108,9.132,1.471,1.471,213.281,181.308,166.455
0.110,9.193,1.495,1.495,213.229,181.334,166.437
0.111,9.256,1.520,1.520,213.174,181.360,166.420
0.113,9.322,1.545,1.545,213.117,181.390,166.404
0.114,9.391,1.567,1.567,213.060,181.424,166.386
0.116,9.462,1.585,1.585,213.004,181.463,166.367
0.118,9.537,1.599,1.599,212.950,181.510,166.344
0.119,9.617,1.605,1.605,212.900,181.565,166.317
0.121,9.703,1.604,1.604,212.855,181.631,166.284
0.122,9.798,1.594,1.594,212.816,181.708,166.245
0.124,9.904,1.576,1.576,212.784,181.798,166.198
0.125,10.021,1.556,1.556,212.759,181.899,166.145
0.127,10.147,1.537,1.537,212.740,182.010,166.087
0.129,10.279,1.525,1.525,212.724,182.126,166.027
0.130,10.414,1.523,1.523,212.710,182.246,165.968
0.132,10.547,1.536,1.536,212.697,182.366,165.911
0.133,10.676,1.565,1.565,212.681,182.484,165.860
0.135,10.798,1.605,1.605,212.663,182.596,165.816
0.136,10.911,1.650,1.650,212.639,182.700,165.782
0.138,11.011,1.695,1.695,212.609,182.794,165.760
0.139,11.100,1.734,1.734,212.570,182.874,165.753
0.141,11.181,1.760,1.760,212.521,182.937,165.763
0.143,11.260,1.770,1.770,212.462,182.983,165.790
0.144,11.345,1.764,1.764,212.396,183.015,165.831
0.146,11.438,1.746,1.746,212.323,183.036,165.886
0.147,11.538,1.721,1.721,212.247,183.047,165.950
0.149,11.645,1.694,1.694,212.170,183.051,166.023
0.150,11.754,1.669,1.669,212.093,183.050,166.101
0.152,11.864,1.650,1.650,212.020,183.048,166.183
0.154,11.972,1.640,1.640,211.951,183.047,166.266
0.155,12.074,1.636,1.636,211.889,183.049,166.347
0.157,12.168,1.637,1.637,211.837,183.057,166.425
0.158,12.252,1.641,1.641,211.796,183.073,166.497
0.160,12.328,1.647,1.647,211.768,183.099,166.562
0.161,12.398,1.652,1.652,211.749,183.134,166.620
0.163,12.468,1.654,1.654,211.738,183.179,166.672
0.165,12.539,1.653,1.653,211.732,183.232,166.720
0.166,12.614,1.648,1.648,211.729,183.293,166.763
0.168,12.693,1.637,1.637,211.725,183.362,166.802
0.169,12.777,1.620,1.620,211.719,183.437,166.839
0.171,12.867,1.596,1.596,211.709,183.519,166.873
0.172,12.963,1.564,1.564,211.690,183.607,166.907
0.174,13.065,1.525,1.525,211.663,183.700,166.939
0.176,13.177,1.482,1.482,211.622,183.799,166.973
0.177,13.297,1.438,1.438,211.568,183.901,167.006
0.179,13.426,1.397,1.397,211.503,184.007,167.041
0.180,13.561,1.362,1.362,211.427,184.113,167.076
0.182,13.700,1.336,1.336,211.346,184.220,167.111
0.183,13.840,1.321,1.321,211.260,184.325,167.146
0.185,13.978,1.316,1.316,211.173,184.426,167.181
0.187,14.112,1.317,1.317,211.086,184.523,167.215
0.188,14.239,1.323,1.323,211.004,184.613,167.248
0.190,14.356,1.329,1.329,210.928,184.695,167.280
0.191,14.460,1.334,1.334,210.860,184.768,167.311
0.193,14.548,1.334,1.334,210.804,184.831,167.339
0.194,14.619,1.330,1.330,210.761,184.881,167.366
0.196,14.674,1.323,1.323,210.730,184.919,167.389
0.197,14.716,1.315,1.315,210.706,184.948,167.408
0.199,14.747,1.307,1.307,210.687,184.969,167.422
0.201,14.771,1.301,1.301,210.669,184.983,167.428
0.202,14.793,1.299,1.299,210.649,184.991,167.426
0.204,14.822,1.303,1.303,210.623,184.996,167.414
0.205,14.864,1.309,1.309,210.587,184.998,167.392
0.207,14.924,1.315,1.315,210.539,185.000,167.357
0.208,15.004,1.319,1.319,210.475,185.002,167.309
0.210,15.109,1.319,1.319,210.391,185.006,167.246
0.212,15.242,1.312,1.312,210.284,185.014,167.168
0.213,15.399,1.295,1.295,210.156,185.026,167.076
0.215,15.577,1.270,1.270,210.011,185.041,166.975
0.216,15.767,1.238,1.238,209.853,185.059,166.870
0.218,15.966,1.202,1.202,209.686,185.079,166.765
0.219,16.168,1.165,1.165,209.513,185.101,166.664
0.221,16.366,1.129,1.129,209.338,185.125,166.573
0.223,16.556,1.097,1.097,209.167,185.150,166.495
0.224,16.733,1.070,1.070,209.002,185.175,166.435
0.226,16.893,1.048,1.048,208.849,185.201,166.397
0.227,17.035,1.032,1.032,208.709,185.226,166.387
0.229,17.159,1.022,1.022,208.589,185.250,166.407
0.230,17.275,1.017,1.017,208.488,185.273,166.459
0.232,17.392,1.019,1.019,208.404,185.294,166.538
0.234,17.515,1.026,1.026,208.335,185.315,166.638
0.235,17.647,1.039,1.039,208.279,185.333,166.755
0.237,17.786,1.057,1.057,208.233,185.350,166.885
0.238,17.929,1.078,1.078,208.194,185.366,167.022
0.240,18.073,1.104,1.104,208.160,185.379,167.162
0.241,18.215,1.131,1.131,208.130,185.390,167.300
0.243,18.350,1.161,1.161,208.099,185.400,167.431
0.245,18.474,1.193,1.193,208.067,185.406,167.551
0.246,18.584,1.224,1.224,208.031,185.411,167.654
0.248,18.678,1.255,1.255,207.988,185.413,167.739
0.249,18.762,1.284,1.284,207.941,185.413,167.808
0.251,18.839,1.311,1.311,207.890,185.410,167.864
0.252,18.911,1.334,1.334,207.835,185.404,167.911
0.254,18.982,1.354,1.354,207.777,185.395,167.951
0.255,19.053,1.369,1.369,207.718,185.384,167.988
0.257,19.124,1.382,1.382,207.657,185.369,168.024
0.259,19.199,1.394,1.394,207.596,185.352,168.062
0.260,19.276,1.405,1.405,207.536,185.331,168.106
0.262,19.359,1.417,1.417,207.477,185.307,168.158
0.263,19.448,1.431,1.431,207.419,185.280,168.222
0.265,19.547,1.447,1.447,207.365,185.250,168.299
0.266,19.655,1.465,1.465,207.314,185.217,168.388
0.268,19.768,1.484,1.484,207.266,185.182,168.484
0.270,19.884,1.504,1.504,207.223,185.146,168.586
0.271,20.002,1.524,1.524,207.183,185.109,168.690
0.273,20.117,1.543,1.543,207.149,185.071,168.794
0.274,20.229,1.562,1.562,207.119,185.034,168.894
0.276,20.332,1.580,1.580,207.096,184.997,168.989
0.277,20.426,1.598,1.598,207.078,184.962,169.074
0.279,20.508,1.615,1.615,207.066,184.929,169.147
0.281,20.574,1.632,1.632,207.062,184.898,169.206
0.282,20.624,1.648,1.648,207.064,184.870,169.247
0.284,20.661,1.664,1.664,207.070,184.845,169.273
0.285,20.688,1.678,1.678,207.076,184.820,169.283
0.287,20.713,1.688,1.688,207.080,184.796,169.281
0.288,20.742,1.694,1.694,207.077,184.770,169.268
0.290,20.780,1.692,1.692,207.064,184.742,169.245
0.292,20.831,1.680,1.680,207.039,184.711,169.215
0.293,20.897,1.657,1.657,206.996,184.675,169.178
0.295,20.982,1.621,1.621,206.934,184.634,169.138
0.296,21.090,1.578,1.578,206.847,184.586,169.095
0.298,21.224,1.529,1.529,206.734,184.530,169.051
0.299,21.386,1.481,1.481,206.591,184.465,169.009
0.301,21.576,1.436,1.436,206.420,184.393,168.968
0.303,21.786,1.399,1.399,206.229,184.315,168.929
0.304,22.011,1.375,1.375,206.023,184.232,168.892
0.306,22.244,1.362,1.362,205.808,184.148,168.858
0.307,22.480,1.360,1.360,205.591,184.064,168.827
0.309,22.710,1.366,1.366,205.377,183.982,168.799
0.310,22.930,1.378,1.378,205.173,183.904,168.774
0.312,23.133,1.395,1.395,204.985,183.832,168.753
0.313,23.312,1.413,1.413,204.819,183.767,168.736
0.315,23.461,1.432,1.432,204.681,183.713,168.724
0.317,23.573,1.451,1.451,204.577,183.670,168.716
0.318,23.650,1.468,1.468,204.507,183.639,168.712
0.320,23.695,1.483,1.483,204.467,183.618,168.711
0.321,23.715,1.495,1.495,204.450,183.607,168.712
0.323,23.720,1.504,1.504,204.453,183.602,168.713
0.324,23.737,1.508,1.508,204.469,183.604,168.713
0.326,23.763,1.507,1.507,204.495,183.610,168.711
0.328,23.793,1.505,1.505,204.523,183.618,168.705
0.329,23.824,1.500,1.500,204.550,183.628,168.696
0.331,23.851,1.495,1.495,204.570,183.638,168.680
0.332,23.876,1.490,1.490,204.578,183.646,168.657
0.334,23.909,1.487,1.487,204.569,183.650,168.626
0.335,23.957,1.486,1.486,204.541,183.651,168.587
0.337,24.023,1.488,1.488,204.495,183.647,168.539
0.339,24.104,1.493,1.493,204.435,183.640,168.485
0.340,24.199,1.502,1.502,204.363,183.630,168.425
0.342,24.303,1.516,1.516,204.282,183.617,168.361
0.343,24.416,1.533,1.533,204.193,183.601,168.293
0.345,24.534,1.556,1.556,204.101,183.583,168.222
0.346,24.655,1.583,1.583,204.006,183.563,168.149
0.348,24.775,1.614,1.614,203.913,183.542,168.076
0.350,24.893,1.647,1.647,203.823,183.519,168.003
0.351,25.006,1.683,1.683,203.740,183.496,167.932
0.353,25.111,1.720,1.720,203.663,183.472,167.862
0.354,25.211,1.758,1.758,203.594,183.448,167.795
0.356,25.307,1.796,1.796,203.528,183.422,167.730
0.357,25.400,1.835,1.835,203.465,183.396,167.667
0.359,25.491,1.873,1.873,203.403,183.368,167.607
0.361,25.582,1.913,1.913,203.339,183.339,167.548
0.362,25.674,1.952,1.952,203.272,183.310,167.492
0.364,25.770,1.992,1.992,203.201,183.278,167.437
0.365,25.869,2.032,2.032,203.123,183.245,167.385
0.367,25.976,2.074,2.074,203.036,183.211,167.334
0.368,26.090,2.118,2.118,202.939,183.174,167.286
0.370,26.214,2.164,2.164,202.830,183.136,167.239
0.371,26.346,2.214,2.214,202.712,183.097,167.195
0.373,26.483,2.268,2.268,202.588,183.058,167.151
0.375,26.621,2.327,2.327,202.463,183.019,167.110
0.376,26.757,2.389,2.389,202.339,182.982,167.069
0.378,26.887,2.450,2.450,202.220,182.947,167.029
0.379,27.008,2.506,2.506,202.109,182.916,166.991
0.381,27.118,2.553,2.553,202.010,182.888,166.953
0.382,27.212,2.587,2.587,201.926,182.866,166.916
0.384,27.288,2.603,2.603,201.862,182.849,166.878
0.386,27.345,2.601,2.601,201.820,182.839,166.842
0.387,27.386,2.585,2.585,201.802,182.836,166.805
0.389,27.422,2.561,2.561,201.808,182.840,166.770
0.390,27.461,2.536,2.536,201.829,182.847,166.737
0.392,27.504,2.515,2.515,201.860,182.856,166.710
0.393,27.545,2.504,2.504,201.895,182.865,166.689
0.395,27.581,2.510,2.510,201.927,182.871,166.676
0.397,27.605,2.531,2.531,201.951,182.873,166.673
0.398,27.620,2.560,2.560,201.961,182.868,166.683
0.400,27.649,2.593,2.593,201.950,182.853,166.705
0.401,27.708,2.622,2.622,201.913,182.828,166.743
0.403,27.805,2.643,2.643,201.843,182.790,166.799
0.404,27.947,2.648,2.648,201.734,182.736,166.873
0.406,28.132,2.637,2.637,201.589,182.668,166.964
0.408,28.351,2.613,2.613,201.413,182.588,167.068
0.409,28.595,2.582,2.582,201.215,182.501,167.180
0.411,28.854,2.551,2.551,201.002,182.409,167.297
0.412,29.120,2.525,2.525,200.782,182.316,167.415
0.414,29.384,2.511,2.511,200.563,182.224,167.527
0.415,29.636,2.513,2.513,200.350,182.138,167.632
0.417,29.866,2.530,2.530,200.153,182.060,167.724
0.418,30.067,2.557,2.557,199.979,181.994,167.798
0.420,30.229,2.589,2.589,199.835,181.943,167.851
0.422,30.344,2.621,2.621,199.728,181.910,167.879
0.423,30.413,2.648,2.648,199.661,181.896,167.881
0.425,30.451,2.665,2.665,199.627,181.897,167.864
0.426,30.484,2.671,2.671,199.619,181.910,167.834
0.428,30.527,2.666,2.666,199.631,181.929,167.798
0.429,30.577,2.655,2.655,199.657,181.952,167.763
0.431,30.625,2.639,2.639,199.688,181.975,167.734
0.433,30.665,2.620,2.620,199.720,181.994,167.719
0.434,30.692,2.601,2.601,199.744,182.005,167.724
0.436,30.725,2.585,2.585,199.755,182.003,167.756
0.437,30.793,2.573,2.573,199.745,181.986,167.821
0.439,30.910,2.568,2.568,199.709,181.950,167.926
0.440,31.083,2.571,2.571,199.642,181.892,168.073
0.442,31.301,2.584,2.584,199.549,181.815,168.256
0.444,31.556,2.610,2.610,199.438,181.723,168.466
0.445,31.837,2.650,2.650,199.313,181.619,168.695
0.447,32.132,2.703,2.703,199.182,181.507,168.935
0.448,32.432,2.763,2.763,199.049,181.389,169.176
0.450,32.724,2.825,2.825,198.923,181.270,169.411
0.451,32.999,2.882,2.882,198.808,181.153,169.632
0.453,33.247,2.930,2.930,198.710,181.041,169.830
0.455,33.456,2.963,2.963,198.637,180.937,169.996
0.456,33.618,2.977,2.977,198.593,180.846,170.123
0.458,33.730,2.974,2.974,198.584,180.769,170.204
0.459,33.806,2.960,2.960,198.601,180.708,170.245
0.461,33.865,2.939,2.939,198.636,180.662,170.254
0.462,33.920,2.916,2.916,198.680,180.630,170.239
0.464,33.974,2.896,2.896,198.721,180.614,170.209
0.466,34.023,2.883,2.883,198.752,180.611,170.172
0.467,34.063,2.878,2.878,198.763,180.623,170.135
0.469,34.106,2.878,2.878,198.744,180.649,170.107
0.470,34.177,2.878,2.878,198.685,180.689,170.096
0.472,34.298,2.877,2.877,198.578,180.743,170.111
0.473,34.483,2.870,2.870,198.412,180.809,170.159
0.475,34.744,2.854,2.854,198.181,180.889,170.248
0.476,35.074,2.829,2.829,197.889,180.980,170.375
0.478,35.462,2.798,2.798,197.550,181.080,170.533
0.480,35.892,2.766,2.766,197.175,181.186,170.715
0.481,36.350,2.740,2.740,196.778,181.297,170.914
0.483,36.822,2.725,2.725,196.370,181.409,171.124
0.484,37.295,2.726,2.726,195.963,181.521,171.337
0.486,37.753,2.748,2.748,195.571,181.630,171.547
0.487,38.182,2.790,2.790,195.205,181.733,171.746
0.489,38.569,2.845,2.845,194.877,181.829,171.929
0.491,38.898,2.909,2.909,194.601,181.914,172.087
0.492,39.158,2.975,2.975,194.388,181.987,172.215
0.494,39.345,3.038,3.038,194.238,182.047,172.311
0.495,39.470,3.093,3.093,194.145,182.095,172.379
0.497,39.542,3.135,3.135,194.100,182.132,172.421
0.498,39.576,3.167,3.167,194.096,182.158,172.442
0.500,39.610,3.188,3.188,194.125,182.175,172.444
0.502,39.667,3.202,3.202,194.179,182.183,172.432
0.503,39.743,3.209,3.209,194.252,182.183,172.407
0.505,39.833,3.212,3.212,194.335,182.176,172.374
0.506,39.927,3.212,3.212,194.420,182.162,172.336
0.508,40.019,3.210,3.210,194.501,182.144,172.296
0.509,40.100,3.207,3.207,194.569,182.120,172.258
0.511,40.167,3.203,3.203,194.620,182.094,172.224
0.513,40.220,3.199,3.199,194.656,182.068,172.196
0.514,40.257,3.197,3.197,194.678,182.045,172.177
0.516,40.278,3.196,3.196,194.688,182.028,172.169
0.517,40.287,3.198,3.198,194.686,182.020,172.173
0.519,40.310,3.200,3.200,194.674,182.024,172.192
0.520,40.355,3.201,3.201,194.653,182.042,172.228
0.522,40.427,3.202,3.202,194.625,182.078,172.282
0.524,40.527,3.199,3.199,194.591,182.134,172.358
0.525,40.660,3.193,3.193,194.552,182.214,172.457
0.527,40.828,3.181,3.181,194.511,182.321,172.581
0.528,41.034,3.166,3.166,194.467,182.455,172.730
0.530,41.269,3.147,3.147,194.421,182.612,172.900
0.531,41.530,3.127,3.127,194.374,182.789,173.085
0.533,41.808,3.106,3.106,194.327,182.981,173.280
0.534,42.097,3.085,3.085,194.279,183.185,173.480
0.536,42.391,3.067,3.067,194.231,183.396,173.680
0.538,42.684,3.049,3.049,194.184,183.609,173.874
0.539,42.968,3.033,3.033,194.138,183.821,174.058
0.541,43.238,3.018,3.018,194.094,184.028,174.226
0.542,43.488,3.002,3.002,194.051,184.224,174.373
0.544,43.711,2.984,2.984,194.011,184.407,174.494
0.545,43.904,2.964,2.964,193.974,184.573,174.585
0.547,44.069,2.942,2.942,193.939,184.722,174.649
0.549,44.212,2.920,2.920,193.906,184.855,174.689
0.550,44.335,2.899,2.899,193.875,184.973,174.709
0.552,44.443,2.883,2.883,193.844,185.076,174.712
0.553,44.538,2.874,2.874,193.814,185.166,174.702
0.555,44.623,2.874,2.874,193.784,185.243,174.683
0.556,44.700,2.886,2.886,193.753,185.309,174.659
0.558,44.769,2.909,2.909,193.722,185.364,174.633
0.560,44.830,2.939,2.939,193.689,185.410,174.608
0.561,44.884,2.972,2.972,193.654,185.447,174.589
0.563,44.933,3.006,3.006,193.617,185.476,174.579
0.564,44.978,3.036,3.036,193.577,185.498,174.578
0.566,45.025,3.059,3.059,193.535,185.517,174.586
0.567,45.075,3.072,3.072,193.491,185.533,174.604
0.569,45.131,3.075,3.075,193.444,185.548,174.630
0.571,45.194,3.071,3.071,193.394,185.564,174.665
0.572,45.264,3.060,3.060,193.343,185.583,174.709
0.574,45.343,3.044,3.044,193.288,185.607,174.760
0.575,45.430,3.024,3.024,193.232,185.638,174.820
0.577,45.528,3.002,3.002,193.173,185.677,174.887
0.578,45.636,2.978,2.978,193.112,185.726,174.961
0.580,45.756,2.954,2.954,193.049,185.788,175.043
0.582,45.887,2.931,2.931,192.984,185.861,175.131
0.583,46.028,2.911,2.911,192.917,185.943,175.223
0.585,46.175,2.895,2.895,192.850,186.033,175.318
0.586,46.327,2.883,2.883,192.782,186.130,175.414
0.588,46.482,2.877,2.877,192.715,186.230,175.510
0.589,46.636,2.878,2.878,192.649,186.332,175.605
0.591,46.787,2.883,2.883,192.584,186.434,175.695
0.592,46.933,2.894,2.894,192.521,186.534,175.781
0.594,47.071,2.911,2.911,192.461,186.631,175.860
0.596,47.200,2.932,2.932,192.404,186.722,175.931
0.597,47.316,2.959,2.959,192.351,186.805,175.992
0.599,47.419,2.989,2.989,192.301,186.880,176.043
0.600,47.512,3.021,3.021,192.255,186.948,176.086
0.602,47.595,3.054,3.054,192.213,187.009,176.123
0.603,47.671,3.086,3.086,192.173,187.065,176.156
0.605,47.742,3.116,3.116,192.135,187.116,176.186
0.607,47.809,3.142,3.142,192.099,187.164,176.216
0.608,47.874,3.163,3.163,192.065,187.210,176.248
0.610,47.939,3.179,3.179,192.032,187.254,176.283
0.611,48.006,3.188,3.188,192.000,187.297,176.323
0.613,48.078,3.192,3.192,191.968,187.341,176.370
0.614,48.157,3.188,3.188,191.937,187.386,176.426
0.616,48.243,3.178,3.178,191.904,187.433,176.491
0.618,48.336,3.160,3.160,191.870,187.484,176.561
0.619,48.433,3.137,3.137,191.833,187.539,176.631
0.621,48.531,3.110,3.110,191.792,187.601,176.696
0.622,48.631,3.083,3.083,191.745,187.668,176.752
0.624,48.733,3.056,3.056,191.691,187.744,176.794
0.625,48.840,3.034,3.034,191.630,187.829,176.817
0.627,48.958,3.017,3.017,191.560,187.925,176.818
0.629,49.094,3.006,3.006,191.480,188.031,176.791
0.630,49.256,2.999,2.999,191.388,188.150,176.731
0.632,49.451,2.993,2.993,191.284,188.283,176.634
0.633,49.683,2.985,2.985,191.167,188.430,176.498
0.635,49.948,2.974,2.974,191.039,188.588,176.328
0.636,50.239,2.956,2.956,190.904,188.754,176.130
0.638,50.549,2.931,2.931,190.765,188.926,175.913
