"T","Distance","Radius","FreeRadius","X","Y","Z"
0.000,0.000,1.409,1.409,191.624,174.057,146.304
0.001,0.152,1.447,1.447,191.595,174.132,146.175
0.002,0.302,1.485,1.485,191.569,174.205,146.047
0.003,0.446,1.525,1.525,191.548,174.274,145.921
0.004,0.583,1.567,1.567,191.535,174.335,145.800
0.005,0.712,1.611,1.611,191.532,174.388,145.683
0.006,0.831,1.659,1.659,191.543,174.430,145.572
0.007,0.941,1.710,1.710,191.568,174.458,145.468
0.008,1.047,1.767,1.767,191.612,174.471,145.372
0.009,1.154,1.828,1.828,191.677,174.465,145.287
0.010,1.272,1.895,1.895,191.765,174.440,145.212
0.011,1.411,1.969,1.969,191.878,174.393,145.149
0.012,1.575,2.047,2.047,192.018,174.322,145.099
0.013,1.764,2.129,2.129,192.180,174.232,145.061
0.014,1.973,2.211,2.211,192.358,174.126,145.033
0.015,2.197,2.291,2.291,192.547,174.008,145.015
0.016,2.429,2.368,2.368,192.741,173.882,145.006
0.017,2.664,2.439,2.439,192.936,173.750,145.005
0.018,2.896,2.503,2.503,193.126,173.618,145.010
0.019,3.118,2.555,2.555,193.306,173.488,145.021
0.020,3.324,2.596,2.596,193.470,173.364,145.037
0.021,3.508,2.622,2.622,193.613,173.250,145.056
0.022,3.664,2.633,2.633,193.731,173.150,145.078
0.023,3.788,2.634,2.634,193.820,173.066,145.101
0.024,3.883,2.626,2.626,193.884,173.000,145.123
0.025,3.948,2.613,2.613,193.924,172.952,145.141
0.026,3.985,2.598,2.598,193.945,172.924,145.152
0.027,3.993,2.583,2.583,193.949,172.918,145.155
0.028,4.013,2.572,2.572,193.938,172.933,145.147
0.029,4.064,2.567,2.567,193.915,172.972,145.124
0.030,4.144,2.572,2.572,193.883,173.035,145.086
0.031,4.257,2.590,2.590,193.844,173.124,145.030
0.032,4.402,2.621,2.621,193.802,173.240,144.952
0.033,4.583,2.663,2.663,193.758,173.383,144.851
0.033,4.796,2.715,2.715,193.715,173.552,144.729
0.034,5.034,2.772,2.772,193.670,173.741,144.590
0.035,5.291,2.832,2.832,193.626,173.944,144.440
0.036,5.559,2.893,2.893,193.579,174.156,144.282
0.037,5.831,2.952,2.952,193.532,174.371,144.123
0.038,6.101,3.005,3.005,193.482,174.585,143.966
0.039,6.362,3.051,3.051,193.431,174.792,143.817
0.040,6.605,3.087,3.087,193.377,174.987,143.680
0.041,6.826,3.110,3.110,193.320,175.164,143.561
0.042,7.017,3.121,3.121,193.260,175.317,143.464
0.043,7.175,3.123,3.123,193.196,175.443,143.393
0.044,7.302,3.118,3.118,193.130,175.541,143.347
0.045,7.406,3.107,3.107,193.062,175.616,143.323
0.046,7.492,3.092,3.092,192.994,175.669,143.318
0.047,7.569,3.075,3.075,192.928,175.705,143.328
0.048,7.640,3.059,3.059,192.863,175.725,143.350
0.049,7.710,3.044,3.044,192.801,175.734,143.381
0.050,7.777,3.033,3.033,192.744,175.735,143.417
0.051,7.841,3.028,3.028,192.693,175.729,143.455
0.052,7.899,3.028,3.028,192.649,175.721,143.492
0.053,7.948,3.033,3.033,192.612,175.714,143.524
0.054,7.986,3.041,3.041,192.585,175.710,143.549
0.055,8.012,3.052,3.052,192.565,175.708,143.567
0.056,8.030,3.064,3.064,192.551,175.710,143.578
0.057,8.040,3.077,3.077,192.543,175.714,143.582
0.058,8.048,3.089,3.089,192.537,175.719,143.580
0.059,8.059,3.099,3.099,192.532,175.726,143.573
0.060,8.074,3.107,3.107,192.528,175.734,143.562
0.061,8.093,3.111,3.111,192.522,175.743,143.546
0.062,8.117,3.112,3.112,192.513,175.752,143.526
0.063,8.145,3.109,3.109,192.500,175.760,143.502
0.064,8.179,3.102,3.102,192.480,175.768,143.476
0.065,8.218,3.093,3.093,192.453,175.774,143.447
0.066,8.265,3.082,3.082,192.420,175.781,143.417
0.067,8.317,3.070,3.070,192.380,175.787,143.384
0.068,8.375,3.055,3.055,192.334,175.795,143.349
0.069,8.439,3.040,3.040,192.282,175.805,143.313
0.070,8.508,3.025,3.025,192.225,175.816,143.275
0.071,8.582,3.009,3.009,192.164,175.831,143.236
0.072,8.662,2.994,2.994,192.098,175.850,143.195
0.073,8.745,2.979,2.979,192.029,175.873,143.154
0.074,8.834,2.963,2.963,191.956,175.900,143.112
0.075,8.927,2.948,2.948,191.881,175.934,143.069
0.076,9.024,2.931,2.931,191.803,175.973,143.027
0.077,9.125,2.914,2.914,191.724,176.019,142.984
0.078,9.227,2.896,2.896,191.645,176.070,142.943
0.079,9.331,2.876,2.876,191.566,176.127,142.905
0.080,9.436,2.855,2.855,191.490,176.189,142.869
0.081,9.541,2.833,2.833,191.416,176.256,142.836
0.082,9.645,2.808,2.808,191.347,176.328,142.808
0.083,9.749,2.782,2.782,191.282,176.406,142.786
0.084,9.851,2.756,2.756,191.224,176.488,142.768
0.085,9.953,2.730,2.730,191.172,176.575,142.758
0.086,10.054,2.705,2.705,191.129,176.667,142.755
0.087,10.156,2.681,2.681,191.093,176.762,142.759
0.088,10.257,2.659,2.659,191.064,176.858,142.768
0.089,10.357,2.640,2.640,191.040,176.955,142.782
0.090,10.455,2.625,2.625,191.020,177.049,142.799
0.091,10.550,2.614,2.614,191.003,177.140,142.819
0.092,10.639,2.608,2.608,190.988,177.226,142.839
0.093,10.721,2.606,2.606,190.973,177.304,142.860
0.094,10.795,2.607,2.607,190.958,177.373,142.878
0.095,10.858,2.610,2.610,190.940,177.432,142.895
0.096,10.910,2.614,2.614,190.920,177.478,142.907
0.097,10.951,2.618,2.618,190.895,177.510,142.915
0.098,10.987,2.621,2.621,190.866,177.529,142.918
0.099,11.021,2.621,2.621,190.832,177.538,142.916
0.100,11.059,2.618,2.618,190.795,177.539,142.910
0.100,11.102,2.609,2.609,190.754,177.534,142.900
0.101,11.149,2.596,2.596,190.709,177.525,142.886
0.102,11.201,2.576,2.576,190.661,177.514,142.870
0.103,11.256,2.552,2.552,190.611,177.505,142.850
0.104,11.314,2.524,2.524,190.558,177.498,142.828
0.105,11.375,2.495,2.495,190.502,177.497,142.803
0.106,11.439,2.465,2.465,190.444,177.504,142.777
0.107,11.507,2.435,2.435,190.384,177.519,142.749
0.108,11.578,2.407,2.407,190.323,177.543,142.721
0.109,11.652,2.383,2.383,190.263,177.574,142.693
0.110,11.726,2.363,2.363,190.203,177.611,142.666
0.111,11.801,2.348,2.348,190.146,177.653,142.642
0.112,11.875,2.340,2.340,190.092,177.698,142.621
0.113,11.945,2.337,2.337,190.042,177.745,142.605
0.114,12.011,2.338,2.338,189.998,177.793,142.594
0.115,12.072,2.343,2.343,189.960,177.840,142.589
0.116,12.127,2.349,2.349,189.930,177.886,142.592
0.117,12.175,2.357,2.357,189.908,177.928,142.602
0.118,12.220,2.365,2.365,189.895,177.967,142.621
0.119,12.262,2.371,2.371,189.888,178.000,142.645
0.120,12.301,2.376,2.376,189.885,178.030,142.670
0.121,12.334,2.377,2.377,189.883,178.054,142.693
0.122,12.360,2.374,2.374,189.882,178.073,142.710
0.123,12.377,2.367,2.367,189.877,178.087,142.718
0.124,12.390,2.355,2.355,189.867,178.095,142.714
0.125,12.417,2.339,2.339,189.849,178.097,142.694
0.126,12.466,2.318,2.318,189.821,178.093,142.654
0.127,12.541,2.293,2.293,189.781,178.082,142.591
0.128,12.647,2.263,2.263,189.726,178.065,142.502
0.129,12.784,2.229,2.229,189.656,178.041,142.387
0.130,12.946,2.190,2.190,189.574,178.012,142.250
0.131,13.128,2.146,2.146,189.483,177.978,142.097
0.132,13.323,2.098,2.098,189.386,177.940,141.931
0.133,13.528,2.047,2.047,189.285,177.899,141.758
0.134,13.735,1.993,1.993,189.183,177.856,141.582
0.135,13.940,1.939,1.939,189.083,177.812,141.409
0.136,14.137,1.886,1.886,188.988,177.767,141.243
0.137,14.320,1.836,1.836,188.901,177.723,141.088
0.138,14.484,1.789,1.789,188.824,177.681,140.949
0.139,14.624,1.748,1.748,188.760,177.641,140.832
0.140,14.738,1.714,1.714,188.709,177.603,140.736
0.141,14.831,1.689,1.689,188.671,177.569,140.660
0.142,14.903,1.674,1.674,188.645,177.536,140.601
0.143,14.959,1.669,1.669,188.630,177.506,140.557
0.144,15.001,1.673,1.673,188.624,177.478,140.525
0.145,15.034,1.683,1.683,188.627,177.452,140.505
0.146,15.063,1.699,1.699,188.637,177.427,140.493
0.147,15.091,1.717,1.717,188.655,177.405,140.488
0.148,15.122,1.738,1.738,188.677,177.385,140.487
0.149,15.155,1.758,1.758,188.705,177.366,140.487
0.150,15.190,1.777,1.777,188.735,177.349,140.488
0.151,15.227,1.792,1.792,188.768,177.333,140.488
0.152,15.263,1.802,1.802,188.800,177.317,140.487
0.153,15.296,1.806,1.806,188.830,177.302,140.485
0.154,15.326,1.805,1.805,188.855,177.286,140.481
0.155,15.352,1.799,1.799,188.874,177.269,140.474
0.156,15.375,1.789,1.789,188.884,177.251,140.465
0.157,15.399,1.776,1.776,188.884,177.231,140.453
0.158,15.429,1.761,1.761,188.871,177.208,140.438
0.159,15.471,1.744,1.744,188.842,177.183,140.419
0.160,15.529,1.727,1.727,188.797,177.154,140.396
0.161,15.605,1.711,1.711,188.734,177.121,140.369
0.162,15.698,1.695,1.695,188.656,177.084,140.336
0.163,15.806,1.681,1.681,188.565,177.042,140.296
0.164,15.927,1.669,1.669,188.465,176.996,140.248
0.165,16.058,1.658,1.658,188.358,176.943,140.191
0.166,16.199,1.649,1.649,188.249,176.886,140.122
0.167,16.349,1.641,1.641,188.141,176.822,140.041
0.167,16.507,1.634,1.634,188.035,176.752,139.947
0.168,16.673,1.628,1.628,187.937,176.675,139.838
0.169,16.848,1.623,1.623,187.849,176.590,139.713
0.170,17.033,1.618,1.618,187.773,176.499,139.570
0.171,17.231,1.614,1.614,187.712,176.400,139.410
0.172,17.439,1.610,1.610,187.664,176.297,139.235
0.173,17.656,1.606,1.606,187.627,176.190,139.050
0.174,17.878,1.603,1.603,187.598,176.083,138.858
0.175,18.101,1.601,1.601,187.575,175.978,138.663
0.176,18.322,1.601,1.601,187.556,175.877,138.467
0.177,18.537,1.604,1.604,187.538,175.781,138.275
0.178,18.743,1.609,1.609,187.520,175.694,138.090
0.179,18.935,1.618,1.618,187.499,175.617,137.915
0.180,19.110,1.631,1.631,187.473,175.553,137.754
0.181,19.265,1.647,1.647,187.440,175.504,137.611
0.182,19.400,1.669,1.669,187.399,175.470,137.487
0.183,19.519,1.695,1.695,187.351,175.450,137.380
0.184,19.624,1.724,1.724,187.299,175.441,137.289
0.185,19.719,1.756,1.756,187.244,175.442,137.212
0.186,19.805,1.790,1.790,187.187,175.450,137.148
0.187,19.883,1.824,1.824,187.131,175.465,137.096
0.188,19.955,1.857,1.857,187.076,175.483,137.053
0.189,20.020,1.889,1.889,187.025,175.504,137.018
0.190,20.078,1.918,1.918,186.979,175.525,136.991
0.191,20.127,1.943,1.943,186.939,175.545,136.969
0.192,20.167,1.964,1.964,186.907,175.561,136.950
0.193,20.198,1.979,1.979,186.884,175.573,136.935
0.194,20.220,1.990,1.990,186.868,175.582,136.923
0.195,20.235,1.997,1.997,186.858,175.587,136.913
0.196,20.244,2.000,2.000,186.853,175.590,136.906
0.197,20.248,2.001,2.001,186.852,175.590,136.902
0.198,20.252,1.999,1.999,186.855,175.588,136.900
0.199,20.258,1.997,1.997,186.860,175.584,136.900
0.200,20.267,1.993,1.993,186.866,175.578,136.902
0.201,20.277,1.989,1.989,186.872,175.572,136.905
0.202,20.287,1.986,1.986,186.878,175.564,136.910
0.203,20.298,1.984,1.984,186.882,175.556,136.917
0.204,20.309,1.983,1.983,186.884,175.548,136.924
0.205,20.319,1.982,1.982,186.885,175.541,136.931
0.206,20.328,1.982,1.982,186.886,175.534,136.937
0.207,20.335,1.982,1.982,186.885,175.529,136.942
0.208,20.339,1.982,1.982,186.885,175.527,136.944
0.209,20.340,1.981,1.981,186.884,175.526,136.943
0.210,20.346,1.980,1.980,186.885,175.529,136.938
0.211,20.357,1.977,1.977,186.886,175.535,136.928
0.212,20.376,1.973,1.973,186.888,175.545,136.913
0.213,20.402,1.967,1.967,186.892,175.560,136.892
0.214,20.437,1.960,1.960,186.898,175.579,136.863
0.215,20.480,1.951,1.951,186.905,175.603,136.828
0.216,20.532,1.940,1.940,186.915,175.629,136.785
0.217,20.590,1.929,1.929,186.927,175.658,136.735
0.218,20.656,1.916,1.916,186.940,175.687,136.677
0.219,20.729,1.903,1.903,186.956,175.716,136.613
0.220,20.808,1.888,1.888,186.974,175.744,136.540
0.221,20.894,1.873,1.873,186.993,175.769,136.461
0.222,20.987,1.858,1.858,187.015,175.791,136.373
0.223,21.086,1.842,1.842,187.038,175.810,136.278
0.224,21.193,1.826,1.826,187.064,175.822,136.175
0.225,21.307,1.810,1.810,187.091,175.829,136.065
0.226,21.425,1.795,1.795,187.120,175.831,135.950
0.227,21.547,1.780,1.780,187.149,175.829,135.832
0.228,21.669,1.766,1.766,187.179,175.823,135.714
0.229,21.791,1.754,1.754,187.208,175.814,135.596
0.230,21.909,1.743,1.743,187.235,175.803,135.482
0.231,22.021,1.734,1.734,187.261,175.790,135.373
0.232,22.125,1.727,1.727,187.285,175.778,135.273
0.233,22.219,1.723,1.723,187.305,175.765,135.182
0.233,22.301,1.721,1.721,187.322,175.753,135.103
0.234,22.367,1.721,1.721,187.335,175.744,135.038
0.235,22.419,1.723,1.723,187.344,175.736,134.988
0.236,22.459,1.727,1.727,187.349,175.730,134.949
0.237,22.489,1.732,1.732,187.352,175.727,134.919
0.238,22.513,1.738,1.738,187.353,175.726,134.895
0.239,22.532,1.745,1.745,187.353,175.726,134.876
0.240,22.551,1.752,1.752,187.352,175.729,134.857
0.241,22.571,1.759,1.759,187.352,175.734,134.838
0.242,22.595,1.766,1.766,187.353,175.740,134.815
0.243,22.626,1.772,1.772,187.356,175.749,134.785
0.244,22.667,1.777,1.777,187.363,175.759,134.746
0.245,22.719,1.781,1.781,187.372,175.772,134.696
0.246,22.783,1.785,1.785,187.385,175.786,134.635
0.247,22.856,1.787,1.787,187.402,175.802,134.566
0.248,22.936,1.788,1.788,187.422,175.819,134.490
0.249,23.021,1.787,1.787,187.445,175.837,134.411
0.250,23.108,1.784,1.784,187.470,175.857,134.330
0.251,23.195,1.780,1.780,187.498,175.877,134.251
0.252,23.279,1.774,1.774,187.528,175.898,134.174
0.253,23.359,1.765,1.765,187.560,175.920,134.104
0.254,23.433,1.755,1.755,187.594,175.943,134.042
0.255,23.500,1.743,1.744,187.629,175.965,133.991
0.256,23.558,1.731,1.731,187.665,175.988,133.952
0.257,23.609,1.718,1.718,187.702,176.010,133.923
0.258,23.657,1.704,1.705,187.739,176.029,133.899
0.259,23.703,1.692,1.692,187.776,176.045,133.878
0.260,23.747,1.680,1.681,187.812,176.056,133.854
0.261,23.793,1.670,1.671,187.846,176.060,133.823
0.262,23.846,1.662,1.662,187.878,176.057,133.782
0.263,23.911,1.656,1.656,187.908,176.045,133.725
0.264,23.993,1.653,1.653,187.935,176.023,133.650
0.265,24.099,1.653,1.652,187.958,175.990,133.552
0.266,24.234,1.656,1.655,187.976,175.944,133.427
0.267,24.401,1.662,1.660,187.991,175.884,133.272
0.268,24.593,1.672,1.670,188.002,175.816,133.093
0.269,24.805,1.684,1.682,188.012,175.742,132.894
0.270,25.029,1.701,1.699,188.022,175.668,132.683
0.271,25.259,1.722,1.720,188.034,175.598,132.464
0.272,25.488,1.746,1.745,188.049,175.536,132.244
0.273,25.710,1.774,1.775,188.068,175.487,132.029
0.274,25.919,1.807,1.809,188.093,175.455,131.824
0.275,26.110,1.843,1.846,188.127,175.445,131.636
0.276,26.282,1.881,1.886,188.169,175.461,131.470
0.277,26.437,1.922,1.928,188.223,175.508,131.332
0.278,26.585,1.963,1.970,188.287,175.586,131.224
0.279,26.734,2.004,2.012,188.358,175.688,131.142
0.280,26.888,2.045,2.053,188.432,175.808,131.080
0.281,27.045,2.085,2.091,188.506,175.938,131.033
0.282,27.199,2.122,2.126,188.575,176.070,130.994
0.283,27.345,2.157,2.157,188.636,176.198,130.959
0.284,27.476,2.188,2.184,188.685,176.314,130.921
0.285,27.588,2.216,2.206,188.718,176.410,130.876
0.286,27.680,2.242,2.226,188.731,176.480,130.817
0.287,27.766,2.267,2.245,188.720,176.515,130.740
0.288,27.874,2.291,2.265,188.682,176.510,130.638
0.289,28.025,2.314,2.286,188.617,176.462,130.511
0.290,28.214,2.339,2.311,188.531,176.379,130.365
0.291,28.435,2.365,2.341,188.428,176.267,130.204
0.292,28.680,2.393,2.376,188.315,176.132,130.035
0.293,28.938,2.424,2.419,188.196,175.981,129.861
0.294,29.200,2.459,2.471,188.078,175.822,129.690
0.295,29.456,2.497,2.531,187.966,175.660,129.526
0.296,29.697,2.537,2.595,187.865,175.502,129.375
0.297,29.913,2.576,2.661,187.780,175.355,129.242
0.298,30.094,2.614,2.726,187.718,175.225,129.132
0.299,30.232,2.650,2.786,187.684,175.119,129.050
0.300,30.331,2.681,2.840,187.674,175.036,128.997
0.300,30.399,2.706,2.883,187.681,174.973,128.971
0.301,30.449,2.724,2.914,187.699,174.927,128.967
0.302,30.493,2.734,2.929,187.720,174.893,128.984
0.303,30.539,2.734,2.925,187.736,174.867,129.019
0.304,30.594,2.723,2.903,187.741,174.846,129.070
0.305,30.661,2.704,2.865,187.726,174.825,129.132
0.306,30.747,2.677,2.815,187.685,174.801,129.204
0.307,30.860,2.645,2.757,187.610,174.771,129.283
0.308,31.008,2.609,2.693,187.495,174.729,129.366
0.309,31.200,2.570,2.628,187.332,174.674,129.450
0.310,31.431,2.529,2.564,187.128,174.606,129.535
0.311,31.696,2.490,2.506,186.889,174.529,129.619
0.312,31.985,2.452,2.456,186.625,174.446,129.702
0.313,32.291,2.417,2.417,186.343,174.360,129.782
0.314,32.604,2.387,2.393,186.051,174.275,129.858
0.315,32.916,2.361,2.382,185.759,174.193,129.931
0.316,33.219,2.339,2.381,185.473,174.118,129.998
0.317,33.503,2.319,2.389,185.203,174.053,130.058
0.318,33.761,2.301,2.404,184.956,174.001,130.112
0.319,33.984,2.285,2.424,184.741,173.966,130.158
0.320,34.166,2.270,2.446,184.563,173.949,130.195
0.321,34.313,2.256,2.471,184.420,173.950,130.224
0.322,34.430,2.241,2.494,184.305,173.965,130.243
0.323,34.527,2.226,2.515,184.213,173.994,130.253
0.324,34.611,2.209,2.532,184.139,174.035,130.253
0.325,34.689,2.191,2.544,184.079,174.084,130.244
0.326,34.769,2.174,2.552,184.027,174.141,130.226
0.327,34.853,2.156,2.555,183.977,174.203,130.197
0.328,34.945,2.140,2.554,183.924,174.268,130.158
0.329,35.047,2.125,2.549,183.864,174.334,130.110
0.330,35.162,2.112,2.540,183.790,174.399,130.051
0.331,35.291,2.102,2.527,183.701,174.462,129.983
0.332,35.431,2.096,2.509,183.596,174.520,129.909
0.333,35.580,2.093,2.488,183.479,174.572,129.833
0.334,35.735,2.095,2.463,183.351,174.617,129.758
0.335,35.894,2.101,2.434,183.212,174.652,129.688
0.336,36.055,2.110,2.403,183.066,174.677,129.627
0.337,36.215,2.120,2.370,182.914,174.689,129.579
0.338,36.376,2.130,2.335,182.757,174.688,129.546
0.339,36.537,2.139,2.299,182.596,174.671,129.533
0.340,36.702,2.145,2.264,182.435,174.637,129.543
0.341,36.876,2.147,2.228,182.274,174.584,129.579
0.342,37.061,2.145,2.194,182.115,174.513,129.642
0.343,37.261,2.136,2.162,181.955,174.427,129.727
0.344,37.475,2.119,2.132,181.796,174.328,129.830
0.345,37.700,2.094,2.105,181.637,174.219,129.945
0.346,37.934,2.064,2.080,181.477,174.102,130.069
0.347,38.173,2.029,2.059,181.315,173.981,130.197
0.348,38.414,1.991,2.039,181.151,173.858,130.325
0.349,38.654,1.953,2.022,180.985,173.737,130.448
0.350,38.889,1.916,2.007,180.816,173.619,130.561
0.351,39.117,1.882,1.994,180.644,173.507,130.660
0.352,39.336,1.852,1.983,180.468,173.404,130.741
0.353,39.547,1.829,1.973,180.290,173.311,130.803
0.354,39.748,1.814,1.965,180.113,173.227,130.848
0.355,39.939,1.808,1.959,179.940,173.151,130.878
0.356,40.120,1.809,1.954,179.773,173.082,130.895
0.357,40.288,1.817,1.950,179.617,173.020,130.900
0.358,40.442,1.830,1.947,179.474,172.964,130.895
0.359,40.580,1.847,1.945,179.346,172.913,130.882
0.360,40.699,1.865,1.942,179.238,172.867,130.862
0.361,40.799,1.884,1.940,179.152,172.824,130.839
0.362,40.876,1.902,1.938,179.090,172.785,130.812
0.363,40.934,1.918,1.935,179.056,172.748,130.785
0.364,40.979,1.930,1.931,179.044,172.714,130.756
0.365,41.021,1.937,1.927,179.048,172.685,130.727
0.366,41.061,1.940,1.922,179.061,172.663,130.697
0.367,41.100,1.939,1.917,179.077,172.647,130.665
0.367,41.136,1.936,1.913,179.089,172.641,130.631
0.368,41.171,1.932,1.910,179.091,172.645,130.596
0.369,41.214,1.927,1.908,179.075,172.661,130.559
0.370,41.277,1.924,1.909,179.036,172.690,130.520
0.371,41.369,1.922,1.911,178.966,172.733,130.479
0.372,41.499,1.923,1.917,178.859,172.792,130.435
0.373,41.671,1.928,1.927,178.711,172.867,130.388
0.374,41.880,1.939,1.941,178.528,172.955,130.339
0.375,42.119,1.954,1.958,178.317,173.053,130.287
0.376,42.378,1.973,1.978,178.085,173.157,130.233
0.377,42.651,1.995,2.001,177.841,173.263,130.177
0.378,42.928,2.019,2.025,177.591,173.368,130.118
0.379,43.203,2.045,2.050,177.342,173.468,130.056
0.380,43.467,2.071,2.075,177.103,173.560,129.992
0.381,43.712,2.097,2.100,176.880,173.639,129.926
0.382,43.932,2.121,2.123,176.682,173.703,129.858
0.383,44.119,2.143,2.144,176.514,173.747,129.787
0.384,44.272,2.162,2.162,176.381,173.771,129.715
0.385,44.397,2.178,2.177,176.278,173.777,129.644
0.386,44.502,2.190,2.188,176.198,173.768,129.577
0.387,44.591,2.199,2.197,176.136,173.747,129.517
0.388,44.669,2.205,2.203,176.087,173.717,129.465
0.389,44.737,2.209,2.207,176.044,173.682,129.424
0.390,44.799,2.210,2.209,176.002,173.645,129.398
0.391,44.859,2.209,2.208,175.955,173.608,129.389
0.392,44.926,2.207,2.206,175.897,173.576,129.399
0.393,45.011,2.203,2.203,175.824,173.550,129.431
0.394,45.123,2.197,2.197,175.728,173.534,129.488
0.395,45.267,2.191,2.192,175.609,173.530,129.568
0.396,45.440,2.187,2.187,175.468,173.536,129.669
0.397,45.638,2.186,2.186,175.309,173.551,129.786
0.398,45.858,2.191,2.191,175.133,173.574,129.916
0.399,46.095,2.204,2.204,174.943,173.605,130.054
0.400,46.345,2.227,2.227,174.742,173.642,130.198
0.401,46.603,2.263,2.263,174.532,173.685,130.342
