"T","Distance","Radius","FreeRadius","X","Y","Z"
0.000,0.000,1.409,1.409,191.624,174.057,146.304
0.001,0.140,1.428,1.428,191.598,174.126,146.185
0.002,0.277,1.447,1.447,191.573,174.194,146.068
0.003,0.411,1.468,1.468,191.553,174.257,145.952
0.005,0.539,1.492,1.492,191.538,174.316,145.839
0.006,0.660,1.519,1.519,191.532,174.368,145.729
0.007,0.774,1.550,1.550,191.536,174.411,145.625
0.008,0.879,1.586,1.586,191.552,174.444,145.526
0.009,0.978,1.628,1.628,191.581,174.464,145.433
0.010,1.075,1.677,1.677,191.627,174.471,145.348
0.012,1.175,1.732,1.732,191.691,174.462,145.272
0.013,1.286,1.792,1.792,191.775,174.436,145.205
0.014,1.415,1.857,1.857,191.881,174.391,145.148
0.015,1.565,1.923,1.923,192.010,174.327,145.102
0.016,1.737,1.991,1.991,192.157,174.246,145.065
0.017,1.926,2.058,2.058,192.318,174.151,145.038
0.019,2.128,2.123,2.123,192.489,174.045,145.020
0.020,2.340,2.185,2.185,192.667,173.931,145.009
0.021,2.555,2.242,2.242,192.846,173.811,145.005
0.022,2.771,2.294,2.294,193.024,173.690,145.006
0.023,2.981,2.341,2.341,193.195,173.568,145.014
0.024,3.180,2.383,2.383,193.356,173.450,145.025
0.026,3.365,2.420,2.420,193.502,173.339,145.041
0.027,3.530,2.453,2.453,193.630,173.236,145.059
0.028,3.671,2.480,2.480,193.736,173.145,145.079
0.029,3.785,2.504,2.504,193.817,173.069,145.101
0.030,3.874,2.523,2.523,193.877,173.006,145.121
0.031,3.938,2.538,2.538,193.918,172.960,145.138
0.033,3.978,2.550,2.550,193.941,172.930,145.150
0.034,3.993,2.561,2.561,193.949,172.917,145.155
0.035,4.002,2.571,2.571,193.944,172.923,145.152
0.036,4.035,2.583,2.583,193.928,172.949,145.138
0.037,4.093,2.598,2.598,193.903,172.994,145.111
0.038,4.178,2.616,2.616,193.871,173.060,145.070
0.040,4.289,2.640,2.640,193.834,173.149,145.013
0.041,4.429,2.671,2.671,193.795,173.260,144.938
0.042,4.599,2.709,2.709,193.755,173.395,144.843
0.043,4.795,2.752,2.752,193.715,173.551,144.730
0.044,5.013,2.797,2.797,193.674,173.723,144.603
0.045,5.247,2.842,2.842,193.633,173.908,144.466
0.047,5.492,2.886,2.886,193.591,174.102,144.322
0.048,5.742,2.926,2.926,193.548,174.299,144.176
0.049,5.991,2.959,2.959,193.503,174.497,144.030
0.050,6.235,2.984,2.984,193.457,174.691,143.889
0.051,6.468,2.998,2.998,193.408,174.876,143.757
0.052,6.685,3.003,3.003,193.358,175.050,143.637
0.054,6.880,2.999,2.999,193.305,175.206,143.533
0.055,7.049,2.991,2.991,193.249,175.342,143.449
0.056,7.190,2.979,2.979,193.190,175.453,143.387
0.057,7.305,2.966,2.966,193.129,175.543,143.346
0.058,7.401,2.955,2.955,193.067,175.611,143.324
0.059,7.482,2.947,2.947,193.004,175.662,143.318
0.061,7.553,2.946,2.946,192.943,175.698,143.325
0.062,7.620,2.952,2.952,192.882,175.720,143.342
0.063,7.684,2.965,2.965,192.825,175.732,143.368
0.064,7.747,2.983,2.983,192.770,175.735,143.400
0.065,7.808,3.004,3.004,192.720,175.733,143.434
0.066,7.865,3.028,3.028,192.676,175.726,143.469
0.068,7.916,3.053,3.053,192.637,175.719,143.502
0.069,7.958,3.076,3.076,192.606,175.713,143.530
0.070,7.991,3.097,3.097,192.582,175.709,143.552
0.071,8.014,3.114,3.114,192.564,175.708,143.568
0.072,8.030,3.126,3.126,192.552,175.710,143.577
0.073,8.041,3.134,3.134,192.543,175.713,143.582
0.075,8.048,3.138,3.138,192.538,175.718,143.581
0.076,8.057,3.139,3.139,192.534,175.724,143.576
0.077,8.070,3.137,3.137,192.530,175.731,143.567
0.078,8.086,3.132,3.132,192.525,175.739,143.553
0.079,8.105,3.125,3.125,192.519,175.747,143.537
0.080,8.129,3.117,3.117,192.509,175.755,143.517
0.082,8.156,3.107,3.107,192.494,175.762,143.494
0.083,8.189,3.097,3.097,192.475,175.769,143.470
0.084,8.226,3.087,3.087,192.449,175.775,143.443
0.085,8.269,3.075,3.075,192.417,175.781,143.415
0.086,8.317,3.064,3.064,192.380,175.787,143.384
0.087,8.371,3.052,3.052,192.338,175.794,143.353
0.089,8.428,3.039,3.039,192.292,175.803,143.319
0.090,8.491,3.027,3.027,192.240,175.813,143.285
0.091,8.558,3.014,3.014,192.185,175.826,143.249
0.092,8.629,3.002,3.002,192.127,175.841,143.212
0.093,8.704,2.990,2.990,192.064,175.860,143.175
0.094,8.783,2.977,2.977,191.999,175.883,143.137
0.096,8.866,2.964,2.964,191.931,175.911,143.098
0.097,8.953,2.951,2.951,191.861,175.943,143.059
0.098,9.043,2.937,2.937,191.789,175.981,143.019
0.099,9.135,2.922,2.922,191.717,176.023,142.981
0.100,9.230,2.906,2.906,191.644,176.070,142.943
0.101,9.325,2.889,2.889,191.572,176.122,142.907
0.103,9.422,2.871,2.871,191.501,176.179,142.874
0.104,9.518,2.852,2.852,191.433,176.240,142.844
0.105,9.614,2.832,2.832,191.368,176.305,142.817
0.106,9.709,2.812,2.812,191.307,176.375,142.794
0.107,9.804,2.790,2.790,191.251,176.448,142.776
0.108,9.897,2.768,2.768,191.200,176.526,142.763
0.110,9.991,2.745,2.745,191.156,176.608,142.756
0.111,10.084,2.722,2.722,191.118,176.693,142.755
0.112,10.177,2.698,2.698,191.087,176.780,142.760
0.113,10.270,2.675,2.675,191.061,176.869,142.769
0.114,10.362,2.652,2.652,191.039,176.958,142.783
0.115,10.452,2.631,2.631,191.021,177.045,142.798
0.117,10.539,2.612,2.612,191.005,177.129,142.816
0.118,10.622,2.596,2.596,190.991,177.208,142.835
0.119,10.699,2.584,2.584,190.978,177.282,142.854
0.120,10.770,2.576,2.576,190.964,177.348,142.872
0.121,10.832,2.572,2.572,190.949,177.406,142.888
0.122,10.885,2.574,2.574,190.931,177.455,142.901
0.124,10.928,2.580,2.580,190.911,177.492,142.911
0.125,10.964,2.589,2.589,190.887,177.517,142.916
0.126,10.996,2.598,2.598,190.859,177.532,142.918
0.127,11.028,2.606,2.606,190.827,177.539,142.915
0.128,11.063,2.612,2.612,190.792,177.539,142.909
0.129,11.102,2.614,2.614,190.755,177.534,142.900
0.131,11.145,2.611,2.611,190.714,177.526,142.888
0.132,11.192,2.600,2.600,190.671,177.516,142.873
0.133,11.242,2.582,2.582,190.625,177.507,142.855
0.134,11.295,2.557,2.557,190.576,177.500,142.836
0.135,11.350,2.528,2.528,190.526,177.497,142.814
0.136,11.407,2.497,2.497,190.474,177.499,142.791
0.138,11.468,2.464,2.464,190.420,177.509,142.766
0.139,11.531,2.432,2.432,190.364,177.526,142.740
0.140,11.597,2.403,2.403,190.308,177.550,142.714
0.141,11.665,2.378,2.378,190.253,177.580,142.688
0.142,11.734,2.358,2.358,190.198,177.615,142.664
0.143,11.803,2.344,2.344,190.146,177.653,142.642
0.145,11.870,2.336,2.336,190.096,177.694,142.623
0.146,11.935,2.332,2.332,190.050,177.737,142.607
0.147,11.997,2.332,2.332,190.008,177.781,142.596
0.148,12.054,2.335,2.335,189.972,177.825,142.590
0.149,12.107,2.342,2.342,189.941,177.868,142.590
0.150,12.154,2.350,2.350,189.918,177.908,142.596
0.152,12.197,2.360,2.360,189.901,177.945,142.610
0.153,12.237,2.371,2.371,189.892,177.979,142.629
0.154,12.275,2.382,2.382,189.887,178.009,142.652
0.155,12.309,2.392,2.392,189.884,178.035,142.674
0.156,12.339,2.399,2.399,189.883,178.056,142.695
0.157,12.362,2.403,2.403,189.882,178.074,142.710
0.159,12.378,2.402,2.402,189.877,178.086,142.718
0.160,12.390,2.396,2.396,189.868,178.094,142.715
0.161,12.412,2.383,2.383,189.854,178.097,142.700
0.162,12.451,2.363,2.363,189.831,178.095,142.668
0.163,12.511,2.334,2.334,189.798,178.087,142.618
0.164,12.596,2.299,2.299,189.753,178.074,142.547
0.166,12.708,2.258,2.258,189.696,178.055,142.453
0.167,12.844,2.212,2.212,189.627,178.031,142.338
0.168,12.999,2.163,2.163,189.549,178.002,142.207
0.169,13.170,2.111,2.111,189.463,177.970,142.062
0.170,13.352,2.059,2.059,189.373,177.935,141.909
0.171,13.540,2.006,2.006,189.280,177.897,141.749
0.172,13.731,1.955,1.955,189.186,177.857,141.588
0.174,13.919,1.905,1.905,189.094,177.817,141.428
0.175,14.102,1.858,1.858,189.006,177.776,141.274
0.176,14.273,1.815,1.815,188.924,177.735,141.129
0.177,14.430,1.777,1.777,188.850,177.696,140.997
0.178,14.568,1.744,1.744,188.786,177.658,140.881
0.179,14.684,1.717,1.717,188.734,177.623,140.783
0.181,14.780,1.697,1.697,188.693,177.589,140.703
0.182,14.857,1.684,1.684,188.662,177.558,140.639
0.183,14.919,1.680,1.680,188.641,177.529,140.589
0.184,14.968,1.684,1.684,188.628,177.501,140.551
0.185,15.006,1.693,1.693,188.624,177.476,140.524
0.186,15.036,1.707,1.707,188.627,177.452,140.505
0.188,15.062,1.724,1.724,188.636,177.430,140.494
0.189,15.088,1.743,1.743,188.651,177.409,140.488
0.190,15.116,1.762,1.762,188.671,177.390,140.487
0.191,15.146,1.781,1.781,188.695,177.372,140.487
0.192,15.178,1.798,1.798,188.722,177.356,140.488
0.193,15.211,1.812,1.812,188.752,177.341,140.489
0.195,15.244,1.822,1.822,188.782,177.326,140.488
0.196,15.276,1.829,1.829,188.811,177.312,140.487
0.197,15.307,1.832,1.832,188.837,177.298,140.484
0.198,15.333,1.831,1.831,188.859,177.283,140.480
0.199,15.357,1.826,1.826,188.876,177.267,140.473
0.200,15.378,1.815,1.815,188.884,177.251,140.465
0.202,15.399,1.800,1.800,188.884,177.232,140.454
0.203,15.426,1.780,1.780,188.873,177.212,140.440
0.204,15.462,1.756,1.756,188.850,177.189,140.424
0.205,15.512,1.728,1.728,188.813,177.163,140.404
0.206,15.576,1.699,1.699,188.761,177.134,140.380
0.207,15.655,1.669,1.669,188.695,177.102,140.352
0.209,15.747,1.639,1.639,188.617,177.066,140.319
0.210,15.851,1.611,1.611,188.529,177.026,140.280
0.211,15.965,1.586,1.586,188.435,176.981,140.233
0.212,16.088,1.566,1.566,188.336,176.932,140.178
0.213,16.219,1.551,1.551,188.236,176.878,140.113
0.214,16.358,1.541,1.541,188.136,176.819,140.038
0.216,16.503,1.536,1.536,188.040,176.755,139.951
0.217,16.654,1.535,1.535,187.949,176.684,139.852
0.218,16.814,1.538,1.538,187.866,176.608,139.739
0.219,16.982,1.544,1.544,187.793,176.526,139.612
0.220,17.160,1.553,1.553,187.733,176.437,139.470
0.221,17.347,1.565,1.565,187.684,176.344,139.315
0.223,17.543,1.579,1.579,187.646,176.247,139.149
0.224,17.744,1.595,1.595,187.615,176.149,138.976
0.225,17.949,1.612,1.612,187.590,176.051,138.798
0.226,18.154,1.629,1.629,187.570,175.955,138.618
0.227,18.356,1.647,1.647,187.553,175.862,138.439
0.228,18.553,1.665,1.665,187.537,175.775,138.263
0.230,18.742,1.681,1.681,187.521,175.695,138.093
0.231,18.919,1.697,1.697,187.502,175.624,137.932
0.232,19.082,1.711,1.711,187.478,175.564,137.782
0.233,19.229,1.723,1.723,187.449,175.516,137.647
0.234,19.358,1.733,1.733,187.414,175.480,137.527
0.235,19.473,1.741,1.741,187.372,175.457,137.423
0.237,19.575,1.750,1.750,187.326,175.444,137.333
0.238,19.667,1.759,1.759,187.277,175.440,137.255
0.239,19.751,1.769,1.769,187.225,175.444,137.189
0.240,19.827,1.781,1.781,187.173,175.453,137.134
0.241,19.898,1.796,1.796,187.121,175.468,137.088
0.242,19.963,1.814,1.814,187.071,175.485,137.049
0.244,20.023,1.837,1.837,187.025,175.504,137.018
0.245,20.076,1.862,1.862,186.982,175.524,136.993
0.246,20.123,1.889,1.889,186.945,175.542,136.972
0.247,20.161,1.916,1.916,186.914,175.557,136.954
0.248,20.191,1.943,1.943,186.891,175.570,136.939
0.249,20.214,1.968,1.968,186.874,175.579,136.927
0.251,20.231,1.990,1.990,186.862,175.585,136.917
0.252,20.242,2.007,2.007,186.855,175.589,136.910
0.253,20.248,2.019,2.019,186.852,175.590,136.905
0.254,20.251,2.025,2.025,186.853,175.589,136.901
0.255,20.255,2.025,2.025,186.856,175.587,136.900
0.256,20.262,2.022,2.022,186.861,175.583,136.900
0.258,20.269,2.016,2.016,186.866,175.578,136.902
0.259,20.278,2.007,2.007,186.872,175.572,136.905
0.260,20.288,1.998,1.998,186.877,175.565,136.910
0.261,20.298,1.989,1.989,186.881,175.558,136.915
0.262,20.308,1.981,1.981,186.884,175.551,136.922
0.263,20.318,1.975,1.975,186.885,175.543,136.928
0.265,20.327,1.972,1.972,186.886,175.537,136.935
0.266,20.334,1.970,1.970,186.886,175.532,136.940
0.267,20.339,1.969,1.969,186.885,175.528,136.943
0.268,20.342,1.970,1.970,186.885,175.526,136.944
0.269,20.344,1.971,1.971,186.884,175.526,136.942
0.270,20.350,1.972,1.972,186.885,175.529,136.937
0.272,20.361,1.973,1.973,186.886,175.535,136.928
0.273,20.378,1.972,1.972,186.888,175.545,136.914
0.274,20.402,1.971,1.971,186.891,175.558,136.894
0.275,20.433,1.968,1.968,186.896,175.575,136.869
0.276,20.471,1.964,1.964,186.903,175.596,136.838
0.277,20.516,1.958,1.958,186.912,175.620,136.801
0.279,20.567,1.949,1.949,186.922,175.645,136.757
0.280,20.624,1.938,1.938,186.933,175.672,136.708
0.281,20.688,1.924,1.924,186.946,175.699,136.652
0.282,20.757,1.908,1.908,186.961,175.725,136.590
0.283,20.831,1.888,1.888,186.978,175.750,136.522
0.284,20.911,1.866,1.866,186.996,175.773,136.447
0.286,20.997,1.841,1.841,187.017,175.793,136.366
0.287,21.089,1.816,1.816,187.038,175.810,136.278
0.288,21.187,1.791,1.791,187.062,175.821,136.184
0.289,21.291,1.767,1.767,187.087,175.829,136.084
0.290,21.399,1.746,1.746,187.113,175.831,135.979
0.291,21.510,1.727,1.727,187.140,175.830,135.871
0.293,21.622,1.713,1.713,187.167,175.825,135.762
0.294,21.735,1.704,1.704,187.194,175.818,135.653
0.295,21.845,1.701,1.701,187.220,175.809,135.546
0.296,21.951,1.701,1.701,187.244,175.799,135.443
0.297,22.052,1.705,1.705,187.268,175.787,135.346
0.298,22.146,1.711,1.711,187.289,175.775,135.255
0.300,22.231,1.719,1.719,187.307,175.764,135.173
0.301,22.305,1.728,1.728,187.323,175.753,135.101
0.302,22.367,1.737,1.737,187.335,175.744,135.041
0.303,22.416,1.745,1.745,187.343,175.737,134.994
0.304,22.454,1.751,1.751,187.348,175.731,134.956
0.305,22.484,1.755,1.755,187.351,175.728,134.927
0.307,22.508,1.759,1.759,187.353,175.726,134.903
0.308,22.527,1.761,1.761,187.353,175.726,134.884
0.309,22.544,1.763,1.763,187.352,175.727,134.867
0.310,22.561,1.764,1.764,187.352,175.730,134.850
0.311,22.581,1.765,1.765,187.352,175.735,134.831
0.312,22.604,1.767,1.767,187.354,175.742,134.809
0.314,22.634,1.769,1.769,187.357,175.750,134.780
0.315,22.672,1.771,1.771,187.363,175.760,134.744
0.316,22.720,1.774,1.774,187.372,175.771,134.698
0.317,22.778,1.776,1.776,187.384,175.784,134.643
0.318,22.844,1.777,1.778,187.398,175.798,134.580
0.319,22.916,1.778,1.778,187.416,175.814,134.512
0.321,22.992,1.777,1.777,187.436,175.831,134.440
0.322,23.071,1.774,1.774,187.458,175.848,134.367
0.323,23.151,1.769,1.769,187.483,175.867,134.293
0.324,23.230,1.761,1.761,187.509,175.886,134.221
0.325,23.307,1.751,1.751,187.538,175.905,134.153
0.326,23.379,1.740,1.740,187.568,175.926,134.090
0.328,23.446,1.728,1.728,187.599,175.946,134.034
0.329,23.507,1.717,1.717,187.632,175.967,133.987
0.330,23.561,1.708,1.708,187.665,175.988,133.951
0.331,23.609,1.702,1.702,187.700,176.008,133.923
0.332,23.654,1.700,1.700,187.734,176.026,133.901
0.333,23.697,1.702,1.702,187.768,176.041,133.880
0.334,23.738,1.709,1.709,187.802,176.052,133.858
0.336,23.780,1.722,1.722,187.834,176.058,133.832
0.337,23.826,1.737,1.737,187.865,176.059,133.799
0.338,23.878,1.755,1.755,187.893,176.053,133.755
0.339,23.943,1.774,1.774,187.919,176.038,133.698
0.340,24.024,1.792,1.793,187.942,176.015,133.624
0.341,24.125,1.810,1.810,187.962,175.982,133.530
0.343,24.251,1.824,1.825,187.978,175.938,133.413
0.344,24.402,1.836,1.836,187.990,175.884,133.273
0.345,24.575,1.843,1.843,187.999,175.821,133.112
0.346,24.765,1.847,1.847,188.007,175.755,132.934
0.347,24.966,1.851,1.850,188.014,175.687,132.745
0.348,25.174,1.854,1.853,188.023,175.621,132.548
0.350,25.383,1.858,1.857,188.035,175.562,132.347
0.351,25.590,1.864,1.864,188.050,175.511,132.148
0.352,25.789,1.875,1.874,188.071,175.473,131.953
0.353,25.977,1.890,1.890,188.098,175.451,131.769
0.354,26.152,1.912,1.913,188.133,175.449,131.597
0.355,26.312,1.939,1.941,188.177,175.469,131.444
0.357,26.462,1.971,1.973,188.232,175.515,131.313
0.358,26.606,2.005,2.008,188.296,175.587,131.205
0.359,26.752,2.039,2.043,188.366,175.679,131.117
0.360,26.900,2.073,2.076,188.440,175.786,131.047
0.361,27.049,2.103,2.107,188.513,175.903,130.990
0.362,27.195,2.130,2.132,188.582,176.023,130.943
0.364,27.334,2.151,2.151,188.644,176.142,130.905
0.365,27.461,2.165,2.162,188.694,176.253,130.870
0.366,27.572,2.173,2.167,188.731,176.352,130.836
0.367,27.662,2.179,2.170,188.749,176.432,130.800
0.368,27.732,2.185,2.173,188.747,176.489,130.758
0.369,27.796,2.192,2.179,188.719,176.516,130.708
0.371,27.879,2.205,2.192,188.664,176.509,130.645
0.372,27.997,2.224,2.214,188.583,176.469,130.570
0.373,28.147,2.253,2.248,188.483,176.399,130.482
0.374,28.326,2.294,2.297,188.370,176.304,130.381
0.375,28.527,2.347,2.363,188.249,176.190,130.267
0.376,28.746,2.409,2.441,188.127,176.059,130.141
0.378,28.977,2.477,2.528,188.010,175.918,130.002
0.379,29.215,2.547,2.620,187.903,175.769,129.850
0.380,29.455,2.617,2.715,187.813,175.618,129.686
0.381,29.695,2.681,2.808,187.745,175.470,129.510
0.382,29.934,2.738,2.896,187.706,175.328,129.321
0.383,30.174,2.784,2.976,187.702,175.198,129.121
0.385,30.418,2.816,3.043,187.737,175.082,128.908
0.386,30.672,2.835,3.099,187.809,174.982,128.686
0.387,30.937,2.845,3.146,187.912,174.895,128.458
0.388,31.213,2.852,3.186,188.042,174.822,128.226
0.389,31.496,2.859,3.221,188.193,174.761,127.995
0.390,31.784,2.870,3.254,188.361,174.710,127.766
0.392,32.073,2.891,3.287,188.540,174.669,127.542
0.393,32.358,2.926,3.323,188.725,174.637,127.328
0.394,32.635,2.978,3.363,188.912,174.613,127.126
0.395,32.897,3.051,3.410,189.095,174.595,126.939
0.396,33.140,3.141,3.462,189.268,174.583,126.769
0.397,33.358,3.242,3.518,189.428,174.575,126.621
0.399,33.547,3.351,3.574,189.570,174.571,126.496
0.400,33.710,3.461,3.630,189.694,174.569,126.391
0.401,33.847,3.567,3.682,189.802,174.570,126.306
0.402,33.962,3.664,3.730,189.895,174.573,126.238
0.403,34.056,3.747,3.770,189.972,174.577,126.185
0.404,34.131,3.811,3.801,190.035,174.581,126.144
0.406,34.190,3.853,3.822,190.085,174.586,126.114
0.407,34.233,3.877,3.835,190.123,174.589,126.093
0.408,34.263,3.887,3.842,190.149,174.592,126.078
0.409,34.281,3.885,3.843,190.163,174.593,126.068
0.410,34.291,3.876,3.842,190.168,174.592,126.060
0.411,34.301,3.863,3.838,190.164,174.588,126.052
0.413,34.317,3.849,3.836,190.152,174.581,126.042
0.414,34.341,3.838,3.835,190.134,174.574,126.030
0.415,34.369,3.833,3.838,190.111,174.567,126.015
0.416,34.401,3.834,3.844,190.086,174.561,125.996
0.417,34.436,3.840,3.852,190.060,174.560,125.971
0.418,34.476,3.849,3.861,190.036,174.563,125.940
0.420,34.520,3.858,3.869,190.014,174.573,125.903
0.421,34.571,3.867,3.876,189.998,174.591,125.858
0.422,34.633,3.874,3.879,189.988,174.618,125.803
0.423,34.707,3.876,3.878,189.987,174.656,125.740
0.424,34.798,3.872,3.872,189.996,174.707,125.666
0.425,34.907,3.860,3.859,190.017,174.772,125.580
0.427,35.035,3.842,3.840,190.049,174.850,125.484
0.428,35.179,3.819,3.816,190.089,174.940,125.378
0.429,35.337,3.792,3.789,190.133,175.040,125.264
0.430,35.505,3.762,3.759,190.178,175.148,125.144
0.431,35.681,3.730,3.728,190.222,175.263,125.019
0.432,35.861,3.699,3.697,190.260,175.384,124.891
0.434,36.043,3.668,3.668,190.290,175.507,124.761
0.435,36.225,3.640,3.641,190.309,175.633,124.630
0.436,36.405,3.616,3.617,190.313,175.758,124.500
0.437,36.583,3.595,3.596,190.299,175.882,124.373
0.438,36.759,3.578,3.579,190.263,176.002,124.250
0.439,36.934,3.566,3.567,190.205,176.117,124.132
0.441,37.111,3.558,3.559,190.124,176.228,124.020
0.442,37.290,3.555,3.555,190.025,176.333,123.914
0.443,37.472,3.556,3.557,189.911,176.434,123.815
0.444,37.656,3.563,3.563,189.784,176.530,123.723
0.445,37.841,3.576,3.576,189.648,176.622,123.637
0.446,38.025,3.593,3.593,189.507,176.710,123.559
0.448,38.205,3.613,3.613,189.363,176.794,123.489
0.449,38.381,3.636,3.636,189.219,176.875,123.427
0.450,38.549,3.659,3.659,189.080,176.951,123.373
0.451,38.708,3.681,3.681,188.947,177.025,123.328
0.452,38.853,3.702,3.702,188.825,177.095,123.291
0.453,38.985,3.719,3.719,188.715,177.162,123.264
0.455,39.104,3.731,3.731,188.617,177.227,123.243
0.456,39.212,3.737,3.737,188.531,177.290,123.228
0.457,39.309,3.739,3.739,188.456,177.350,123.216
0.458,39.396,3.737,3.737,188.392,177.409,123.205
0.459,39.476,3.734,3.734,188.337,177.466,123.194
0.460,39.550,3.730,3.730,188.292,177.522,123.180
0.462,39.618,3.728,3.728,188.255,177.577,123.162
0.463,39.684,3.728,3.728,188.227,177.632,123.138
0.464,39.751,3.732,3.732,188.206,177.686,123.106
0.465,39.822,3.742,3.742,188.192,177.741,123.063
0.466,39.899,3.757,3.757,188.184,177.796,123.009
0.467,39.985,3.778,3.778,188.182,177.851,122.943
0.469,40.080,3.804,3.804,188.185,177.906,122.866
0.470,40.182,3.832,3.832,188.191,177.962,122.781
0.471,40.288,3.864,3.864,188.199,178.017,122.690
0.472,40.399,3.897,3.897,188.210,178.072,122.595
0.473,40.511,3.930,3.930,188.221,178.125,122.497
0.474,40.622,3.964,3.964,188.232,178.178,122.400
0.476,40.731,3.996,3.996,188.242,178.230,122.304
