"T","Distance","Radius","FreeRadius","X","Y","Z"
0.000,0.000,0.971,0.971,-76.658,-54.389,-5.914
0.004,0.044,0.961,0.961,-76.666,-54.378,-5.957
0.008,0.089,0.952,0.952,-76.673,-54.369,-5.999
0.012,0.133,0.944,0.944,-76.680,-54.362,-6.043
0.016,0.177,0.939,0.939,-76.687,-54.359,-6.086
0.019,0.222,0.938,0.938,-76.692,-54.362,-6.131
0.023,0.269,0.942,0.942,-76.695,-54.370,-6.177
0.027,0.319,0.950,0.950,-76.697,-54.386,-6.224
0.031,0.374,0.961,0.961,-76.697,-54.412,-6.273
0.035,0.436,0.977,0.977,-76.695,-54.447,-6.323
0.039,0.506,1.006,1.006,-76.691,-54.494,-6.376
0.043,0.587,1.053,1.053,-76.683,-54.553,-6.430
0.047,0.680,1.108,1.108,-76.673,-54.626,-6.488
0.051,0.785,1.147,1.147,-76.660,-54.711,-6.546
0.054,0.898,1.154,1.154,-76.644,-54.806,-6.606
0.058,1.017,1.143,1.143,-76.626,-54.907,-6.667
0.062,1.139,1.135,1.135,-76.605,-55.012,-6.726
0.066,1.262,1.141,1.141,-76.583,-55.117,-6.785
0.070,1.383,1.158,1.158,-76.560,-55.222,-6.841
0.074,1.499,1.183,1.183,-76.535,-55.322,-6.895
0.078,1.608,1.209,1.209,-76.509,-55.415,-6.945
0.082,1.707,1.231,1.231,-76.482,-55.498,-6.991
0.086,1.793,1.243,1.243,-76.455,-55.569,-7.032
0.089,1.864,1.245,1.245,-76.427,-55.624,-7.066
0.093,1.922,1.239,1.239,-76.399,-55.666,-7.097
0.097,1.972,1.228,1.228,-76.371,-55.696,-7.125
0.101,2.017,1.222,1.222,-76.342,-55.717,-7.153
0.105,2.062,1.225,1.225,-76.313,-55.731,-7.183
0.109,2.110,1.239,1.239,-76.283,-55.742,-7.218
0.113,2.163,1.259,1.259,-76.252,-55.753,-7.261
0.117,2.226,1.283,1.283,-76.220,-55.765,-7.313
0.121,2.300,1.300,1.300,-76.187,-55.782,-7.377
0.125,2.388,1.305,1.305,-76.152,-55.806,-7.455
0.128,2.495,1.305,1.305,-76.116,-55.840,-7.550
0.132,2.624,1.308,1.308,-76.079,-55.887,-7.663
0.136,2.773,1.323,1.323,-76.042,-55.948,-7.795
0.140,2.939,1.352,1.352,-76.005,-56.020,-7.939
0.144,3.117,1.393,1.393,-75.972,-56.104,-8.093
0.148,3.301,1.447,1.447,-75.945,-56.196,-8.250
0.152,3.489,1.512,1.512,-75.924,-56.297,-8.407
0.156,3.675,1.585,1.585,-75.913,-56.405,-8.558
0.160,3.855,1.668,1.668,-75.913,-56.518,-8.699
0.163,4.028,1.759,1.759,-75.927,-56.635,-8.826
0.167,4.192,1.851,1.851,-75.956,-56.755,-8.933
0.171,4.346,1.926,1.926,-76.002,-56.876,-9.016
0.175,4.494,1.970,1.970,-76.067,-56.997,-9.070
0.179,4.641,1.987,1.987,-76.151,-57.116,-9.096
0.183,4.791,1.986,1.986,-76.249,-57.230,-9.099
0.187,4.941,1.974,1.974,-76.354,-57.335,-9.086
0.191,5.086,1.953,1.953,-76.463,-57.429,-9.065
0.195,5.221,1.925,1.925,-76.569,-57.509,-9.044
0.198,5.338,1.904,1.904,-76.668,-57.570,-9.028
0.202,5.432,1.906,1.906,-76.753,-57.611,-9.027
0.206,5.504,1.942,1.942,-76.820,-57.627,-9.045
0.210,5.568,1.994,1.994,-76.863,-57.615,-9.092
0.214,5.661,2.042,2.042,-76.878,-57.573,-9.173
0.218,5.808,2.073,2.073,-76.857,-57.497,-9.297
0.222,6.018,2.080,2.080,-76.800,-57.386,-9.466
0.226,6.285,2.064,2.064,-76.710,-57.246,-9.675
0.230,6.597,2.049,2.049,-76.595,-57.082,-9.914
0.233,6.942,2.067,2.067,-76.459,-56.901,-10.175
0.237,7.309,2.136,2.136,-76.311,-56.709,-10.451
0.241,7.686,2.248,2.248,-76.155,-56.512,-10.731
0.245,8.061,2.389,2.389,-75.998,-56.317,-11.010
0.249,8.421,2.552,2.552,-75.846,-56.129,-11.276
0.253,8.754,2.727,2.727,-75.706,-55.955,-11.524
0.257,9.049,2.896,2.896,-75.583,-55.800,-11.743
0.261,9.294,3.007,3.007,-75.484,-55.672,-11.927
0.265,9.479,3.006,3.006,-75.413,-55.575,-12.067
0.268,9.608,2.910,2.910,-75.370,-55.506,-12.168
0.272,9.690,2.803,2.803,-75.351,-55.462,-12.235
0.276,9.734,2.760,2.760,-75.352,-55.439,-12.272
0.280,9.758,2.776,2.776,-75.370,-55.432,-12.285
0.284,9.790,2.824,2.824,-75.401,-55.437,-12.279
0.288,9.838,2.880,2.880,-75.444,-55.450,-12.261
0.292,9.897,2.928,2.928,-75.493,-55.467,-12.234
0.296,9.960,2.954,2.954,-75.546,-55.484,-12.204
0.300,10.022,2.958,2.958,-75.600,-55.497,-12.178
0.304,10.076,2.947,2.947,-75.651,-55.502,-12.159
0.307,10.122,2.928,2.928,-75.696,-55.495,-12.153
0.311,10.166,2.908,2.908,-75.735,-55.475,-12.160
0.315,10.213,2.894,2.894,-75.768,-55.447,-12.177
0.319,10.266,2.888,2.888,-75.796,-55.410,-12.203
0.323,10.325,2.890,2.890,-75.820,-55.368,-12.236
0.327,10.387,2.899,2.899,-75.840,-55.321,-12.273
0.331,10.452,2.912,2.912,-75.857,-55.273,-12.312
0.335,10.516,2.928,2.928,-75.873,-55.225,-12.352
0.339,10.577,2.944,2.944,-75.886,-55.180,-12.390
0.342,10.633,2.958,2.958,-75.899,-55.138,-12.425
0.346,10.680,2.966,2.966,-75.912,-55.102,-12.453
0.350,10.717,2.970,2.970,-75.926,-55.075,-12.473
0.354,10.744,2.971,2.971,-75.940,-55.055,-12.486
0.358,10.765,2.972,2.972,-75.955,-55.042,-12.492
0.362,10.782,2.976,2.976,-75.971,-55.035,-12.494
0.366,10.798,2.983,2.983,-75.986,-55.032,-12.493
0.370,10.814,2.987,2.987,-76.002,-55.032,-12.491
0.374,10.830,2.979,2.979,-76.018,-55.034,-12.490
0.377,10.845,2.949,2.949,-76.033,-55.037,-12.491
0.381,10.861,2.912,2.912,-76.047,-55.039,-12.496
0.385,10.878,2.886,2.886,-76.061,-55.039,-12.507
0.389,10.901,2.878,2.878,-76.074,-55.037,-12.525
0.393,10.931,2.881,2.881,-76.086,-55.029,-12.552
0.397,10.971,2.887,2.887,-76.097,-55.017,-12.588
0.401,11.020,2.887,2.887,-76.106,-55.001,-12.633
0.405,11.076,2.880,2.880,-76.113,-54.980,-12.685
0.409,11.138,2.862,2.862,-76.119,-54.956,-12.742
0.412,11.205,2.840,2.840,-76.122,-54.929,-12.803
0.416,11.276,2.818,2.818,-76.122,-54.899,-12.867
0.420,11.349,2.800,2.800,-76.120,-54.866,-12.933
0.424,11.424,2.788,2.788,-76.115,-54.832,-12.999
0.428,11.499,2.782,2.782,-76.107,-54.797,-13.064
0.432,11.572,2.775,2.775,-76.095,-54.760,-13.127
0.436,11.644,2.760,2.760,-76.080,-54.722,-13.186
0.440,11.713,2.731,2.731,-76.062,-54.685,-13.241
0.444,11.778,2.693,2.693,-76.043,-54.649,-13.293
0.447,11.840,2.648,2.648,-76.027,-54.616,-13.342
0.451,11.898,2.601,2.601,-76.016,-54.586,-13.390
0.455,11.952,2.559,2.559,-76.013,-54.560,-13.438
0.459,12.004,2.526,2.526,-76.020,-54.541,-13.486
0.463,12.059,2.515,2.515,-76.040,-54.529,-13.536
0.467,12.123,2.533,2.533,-76.076,-54.526,-13.588
0.471,12.201,2.568,2.568,-76.131,-54.531,-13.644
0.475,12.300,2.586,2.586,-76.207,-54.548,-13.704
0.479,12.423,2.565,2.565,-76.307,-54.577,-13.770
0.482,12.574,2.512,2.512,-76.432,-54.618,-13.842
0.486,12.747,2.442,2.442,-76.579,-54.670,-13.919
0.490,12.939,2.369,2.369,-76.743,-54.730,-13.999
0.494,13.144,2.299,2.299,-76.918,-54.797,-14.081
0.498,13.357,2.237,2.237,-77.101,-54.867,-14.164
0.502,13.572,2.186,2.186,-77.287,-54.939,-14.245
0.506,13.784,2.147,2.147,-77.471,-55.010,-14.324
0.510,13.989,2.120,2.120,-77.649,-55.079,-14.398
0.514,14.179,2.108,2.108,-77.815,-55.142,-14.467
0.518,14.352,2.110,2.110,-77.965,-55.199,-14.529
0.521,14.500,2.121,2.121,-78.095,-55.245,-14.582
0.525,14.619,2.124,2.124,-78.201,-55.281,-14.626
0.529,14.712,2.111,2.111,-78.283,-55.305,-14.661
0.533,14.781,2.089,2.089,-78.345,-55.319,-14.689
0.537,14.831,2.069,2.069,-78.389,-55.323,-14.713
0.541,14.866,2.059,2.059,-78.417,-55.319,-14.733
0.545,14.893,2.063,2.063,-78.432,-55.307,-14.753
0.549,14.921,2.084,2.084,-78.436,-55.289,-14.773
0.553,14.954,2.113,2.113,-78.433,-55.264,-14.795
0.556,14.995,2.138,2.138,-78.424,-55.235,-14.822
0.560,15.044,2.150,2.150,-78.412,-55.201,-14.855
0.564,15.101,2.147,2.147,-78.400,-55.164,-14.897
0.568,15.166,2.130,2.130,-78.390,-55.125,-14.947
0.572,15.239,2.102,2.102,-78.384,-55.083,-15.007
0.576,15.318,2.073,2.073,-78.382,-55.039,-15.074
0.580,15.404,2.049,2.049,-78.386,-54.993,-15.146
0.584,15.493,2.031,2.031,-78.396,-54.945,-15.221
0.588,15.586,2.019,2.019,-78.413,-54.895,-15.297
0.591,15.682,2.016,2.016,-78.438,-54.843,-15.373
0.595,15.780,2.025,2.025,-78.472,-54.789,-15.447
0.599,15.879,2.048,2.048,-78.516,-54.733,-15.516
0.603,15.981,2.084,2.084,-78.571,-54.674,-15.580
0.607,16.087,2.128,2.128,-78.637,-54.614,-15.635
0.611,16.197,2.170,2.170,-78.716,-54.552,-15.680
0.615,16.314,2.194,2.194,-78.807,-54.487,-15.717
0.619,16.439,2.182,2.182,-78.908,-54.422,-15.748
0.623,16.570,2.141,2.141,-79.017,-54.354,-15.776
0.626,16.708,2.094,2.094,-79.133,-54.286,-15.806
0.630,16.852,2.062,2.062,-79.254,-54.216,-15.841
0.634,17.000,2.048,2.048,-79.378,-54.146,-15.883
0.638,17.153,2.053,2.053,-79.503,-54.075,-15.935
0.642,17.311,2.077,2.077,-79.627,-54.004,-16.003
0.646,17.476,2.112,2.112,-79.749,-53.933,-16.088
0.650,17.650,2.153,2.153,-79.867,-53.862,-16.194
0.654,17.835,2.193,2.193,-79.978,-53.791,-16.324
0.658,18.035,2.228,2.228,-80.084,-53.721,-16.478
0.661,18.246,2.256,2.256,-80.184,-53.653,-16.651
0.665,18.466,2.286,2.286,-80.282,-53.589,-16.838
0.669,18.692,2.328,2.328,-80.379,-53.529,-17.033
0.673,18.920,2.384,2.384,-80.476,-53.474,-17.232
0.677,19.145,2.456,2.456,-80.575,-53.426,-17.428
0.681,19.364,2.543,2.543,-80.678,-53.386,-17.617
0.685,19.574,2.651,2.651,-80.787,-53.355,-17.794
0.689,19.772,2.781,2.781,-80.902,-53.334,-17.952
0.693,19.956,2.915,2.915,-81.028,-53.324,-18.088
0.696,20.129,3.005,3.005,-81.163,-53.326,-18.195
0.700,20.296,3.018,3.018,-81.310,-53.341,-18.271
0.704,20.461,2.982,2.982,-81.467,-53.366,-18.318
0.708,20.628,2.948,2.948,-81.629,-53.397,-18.337
0.712,20.799,2.943,2.943,-81.797,-53.433,-18.332
0.716,20.974,2.955,2.955,-81.966,-53.469,-18.305
0.720,21.152,2.965,2.965,-82.134,-53.503,-18.257
0.724,21.332,2.971,2.971,-82.300,-53.533,-18.193
0.728,21.512,2.982,2.982,-82.460,-53.554,-18.113
0.732,21.691,2.998,2.998,-82.612,-53.565,-18.021
0.735,21.866,3.000,3.000,-82.754,-53.562,-17.918
0.739,22.036,2.969,2.969,-82.883,-53.543,-17.808
0.743,22.204,2.902,2.902,-82.998,-53.505,-17.693
0.747,22.369,2.819,2.819,-83.102,-53.451,-17.576
0.751,22.533,2.738,2.738,-83.199,-53.385,-17.462
0.755,22.695,2.663,2.663,-83.292,-53.309,-17.353
0.759,22.853,2.593,2.593,-83.385,-53.228,-17.253
0.763,23.008,2.531,2.531,-83.482,-53.144,-17.167
0.767,23.159,2.492,2.492,-83.587,-53.061,-17.097
0.770,23.308,2.488,2.488,-83.703,-52.982,-17.048
0.774,23.460,2.516,2.516,-83.834,-52.910,-17.022
0.778,23.621,2.567,2.567,-83.984,-52.850,-17.025
0.782,23.804,2.629,2.629,-84.157,-52.803,-17.058
0.786,24.015,2.692,2.692,-84.356,-52.773,-17.125
0.790,24.258,2.747,2.747,-84.577,-52.757,-17.222
0.794,24.526,2.796,2.796,-84.818,-52.751,-17.342
0.798,24.816,2.858,2.858,-85.073,-52.748,-17.478
0.802,25.119,2.947,2.947,-85.339,-52.745,-17.624
0.805,25.428,3.065,3.065,-85.610,-52.737,-17.772
0.809,25.738,3.208,3.208,-85.884,-52.719,-17.916
0.813,26.043,3.372,3.372,-86.156,-52.686,-18.050
0.817,26.337,3.546,3.546,-86.420,-52.634,-18.167
0.821,26.618,3.719,3.719,-86.674,-52.557,-18.260
0.825,26.886,3.854,3.854,-86.913,-52.452,-18.322
0.829,27.147,3.902,3.902,-87.132,-52.313,-18.348
0.833,27.409,3.847,3.847,-87.332,-52.143,-18.338
0.837,27.678,3.762,3.762,-87.513,-51.949,-18.297
0.840,27.954,3.728,3.728,-87.677,-51.737,-18.230
0.844,28.237,3.771,3.771,-87.826,-51.513,-18.143
0.848,28.521,3.859,3.859,-87.959,-51.284,-18.041
0.852,28.803,3.965,3.965,-88.080,-51.056,-17.928
0.856,29.076,4.086,4.086,-88.188,-50.835,-17.809
0.860,29.333,4.229,4.229,-88.286,-50.628,-17.691
0.864,29.569,4.380,4.380,-88.374,-50.441,-17.577
0.868,29.776,4.494,4.494,-88.455,-50.281,-17.473
0.872,29.949,4.531,4.531,-88.528,-50.153,-17.385
0.875,30.085,4.512,4.512,-88.596,-50.059,-17.312
0.879,30.192,4.487,4.487,-88.658,-49.994,-17.255
0.883,30.275,4.490,4.490,-88.715,-49.954,-17.211
0.887,30.339,4.517,4.517,-88.768,-49.933,-17.179
0.891,30.392,4.558,4.558,-88.815,-49.929,-17.157
0.895,30.438,4.598,4.598,-88.859,-49.936,-17.143
0.899,30.480,4.625,4.625,-88.899,-49.949,-17.137
0.903,30.520,4.627,4.627,-88.935,-49.965,-17.136
0.907,30.556,4.613,4.613,-88.968,-49.979,-17.139
0.911,30.588,4.594,4.594,-88.999,-49.986,-17.144
0.914,30.617,4.579,4.579,-89.027,-49.982,-17.150
0.918,30.648,4.570,4.570,-89.053,-49.964,-17.156
0.922,30.687,4.568,4.568,-89.078,-49.935,-17.162
0.926,30.734,4.573,4.573,-89.103,-49.896,-17.168
0.930,30.788,4.583,4.583,-89.128,-49.848,-17.174
0.934,30.849,4.596,4.596,-89.155,-49.794,-17.181
0.938,30.916,4.611,4.611,-89.184,-49.735,-17.190
0.942,30.987,4.627,4.627,-89.216,-49.673,-17.200
0.946,31.061,4.643,4.643,-89.252,-49.609,-17.211
0.949,31.138,4.656,4.656,-89.293,-49.545,-17.225
0.953,31.217,4.667,4.667,-89.340,-49.484,-17.240
0.957,31.297,4.674,4.674,-89.393,-49.426,-17.259
0.961,31.380,4.676,4.676,-89.453,-49.372,-17.280
0.965,31.465,4.674,4.674,-89.519,-49.324,-17.303
0.969,31.554,4.667,4.667,-89.591,-49.279,-17.329
0.973,31.645,4.658,4.658,-89.668,-49.238,-17.356
0.977,31.740,4.645,4.645,-89.749,-49.200,-17.386
0.981,31.837,4.631,4.631,-89.834,-49.165,-17.416
0.984,31.937,4.616,4.616,-89.923,-49.132,-17.448
0.988,32.039,4.600,4.600,-90.014,-49.101,-17.481
0.992,32.142,4.585,4.585,-90.107,-49.071,-17.515
0.996,32.246,4.570,4.570,-90.201,-49.042,-17.550
1.000,32.351,4.556,4.556,-90.296,-49.014,-17.584
