"T","Distance","Radius","FreeRadius","X","Y","Z"
0.000,0.000,1.097,1.097,209.866,188.542,169.867
0.001,0.174,1.116,1.116,209.949,188.657,169.767
0.002,0.347,1.136,1.136,210.032,188.771,169.666
0.003,0.520,1.158,1.158,210.113,188.884,169.565
0.004,0.691,1.181,1.181,210.194,188.995,169.462
0.005,0.861,1.206,1.206,210.273,189.103,169.357
0.006,1.029,1.235,1.235,210.349,189.207,169.249
0.008,1.195,1.267,1.267,210.423,189.307,169.139
0.009,1.359,1.303,1.303,210.494,189.402,169.026
0.010,1.521,1.345,1.345,210.561,189.492,168.908
0.011,1.681,1.391,1.391,210.624,189.574,168.787
0.012,1.840,1.443,1.443,210.682,189.650,168.661
0.013,1.996,1.498,1.498,210.736,189.718,168.531
0.014,2.150,1.556,1.556,210.785,189.778,168.398
0.015,2.300,1.614,1.614,210.829,189.830,168.264
0.016,2.445,1.672,1.672,210.868,189.873,168.131
0.017,2.586,1.729,1.729,210.901,189.906,167.998
0.018,2.720,1.782,1.782,210.929,189.930,167.869
0.019,2.848,1.832,1.832,210.952,189.944,167.744
0.021,2.969,1.876,1.876,210.968,189.948,167.624
0.022,3.082,1.914,1.914,210.979,189.941,167.511
0.023,3.189,1.946,1.946,210.984,189.923,167.407
0.024,3.289,1.974,1.974,210.983,189.894,167.311
0.025,3.384,1.998,1.998,210.976,189.858,167.224
0.026,3.474,2.018,2.018,210.965,189.815,167.145
0.027,3.560,2.036,2.036,210.949,189.768,167.074
0.028,3.642,2.052,2.052,210.929,189.719,167.011
0.029,3.719,2.067,2.067,210.905,189.671,166.956
0.030,3.791,2.081,2.081,210.878,189.625,166.909
0.031,3.856,2.095,2.095,210.849,189.583,166.869
0.032,3.913,2.108,2.108,210.818,189.548,166.835
0.034,3.963,2.120,2.120,210.784,189.522,166.809
0.035,4.006,2.128,2.128,210.751,189.505,166.789
0.036,4.042,2.134,2.134,210.719,189.496,166.775
0.037,4.071,2.134,2.134,210.691,189.493,166.765
0.038,4.093,2.129,2.129,210.670,189.493,166.759
0.039,4.104,2.117,2.117,210.659,189.494,166.755
0.040,4.107,2.098,2.098,210.661,189.494,166.753
0.041,4.123,2.070,2.070,210.677,189.491,166.752
0.042,4.158,2.035,2.035,210.711,189.482,166.751
0.043,4.215,1.993,1.993,210.765,189.465,166.748
0.044,4.296,1.947,1.947,210.841,189.438,166.743
0.045,4.405,1.897,1.897,210.942,189.399,166.734
0.047,4.539,1.845,1.845,211.065,189.347,166.722
0.048,4.696,1.793,1.793,211.206,189.280,166.706
0.049,4.873,1.743,1.743,211.362,189.198,166.686
0.050,5.067,1.695,1.695,211.527,189.100,166.661
0.051,5.276,1.651,1.651,211.700,188.985,166.631
0.052,5.499,1.612,1.612,211.875,188.852,166.596
0.053,5.734,1.581,1.581,212.049,188.700,166.555
0.054,5.979,1.557,1.557,212.218,188.528,166.509
0.055,6.236,1.542,1.542,212.378,188.335,166.456
0.056,6.503,1.538,1.538,212.525,188.120,166.396
0.057,6.779,1.546,1.546,212.659,187.887,166.330
0.058,7.062,1.566,1.566,212.780,187.641,166.261
0.060,7.346,1.600,1.600,212.889,187.389,166.190
0.061,7.628,1.650,1.650,212.986,187.135,166.117
0.062,7.901,1.715,1.715,213.073,186.885,166.046
0.063,8.162,1.793,1.793,213.149,186.645,165.978
0.064,8.404,1.880,1.880,213.215,186.421,165.914
0.065,8.622,1.973,1.973,213.272,186.219,165.856
0.066,8.811,2.067,2.067,213.321,186.043,165.807
0.067,8.965,2.159,2.159,213.362,185.900,165.766
0.068,9.083,2.246,2.246,213.396,185.792,165.736
0.069,9.169,2.324,2.324,213.423,185.713,165.715
0.070,9.228,2.389,2.389,213.445,185.659,165.703
0.071,9.264,2.438,2.438,213.462,185.627,165.699
0.073,9.285,2.471,2.471,213.474,185.612,165.702
0.074,9.298,2.490,2.490,213.483,185.608,165.712
0.075,9.315,2.497,2.497,213.489,185.613,165.728
0.076,9.337,2.494,2.494,213.493,185.620,165.748
0.077,9.363,2.484,2.484,213.495,185.627,165.773
0.078,9.391,2.469,2.469,213.496,185.628,165.801
0.079,9.423,2.451,2.451,213.497,185.621,165.832
0.080,9.458,2.432,2.432,213.499,185.606,165.864
0.081,9.496,2.414,2.414,213.501,185.585,165.895
0.082,9.534,2.399,2.399,213.506,185.561,165.924
0.083,9.572,2.387,2.387,213.513,185.534,165.950
0.084,9.607,2.378,2.378,213.524,185.508,165.971
0.085,9.640,2.371,2.371,213.538,185.482,165.984
0.087,9.669,2.368,2.368,213.557,185.460,165.990
0.088,9.699,2.367,2.367,213.582,185.443,165.985
0.089,9.735,2.370,2.370,213.612,185.432,165.969
0.090,9.782,2.375,2.375,213.648,185.429,165.940
0.091,9.841,2.383,2.383,213.691,185.434,165.900
0.092,9.910,2.394,2.394,213.739,185.445,165.851
0.093,9.986,2.408,2.408,213.791,185.460,165.796
0.094,10.069,2.424,2.424,213.846,185.477,165.738
0.095,10.153,2.441,2.441,213.904,185.496,165.679
0.096,10.238,2.460,2.460,213.963,185.515,165.621
0.097,10.321,2.479,2.479,214.023,185.532,165.568
0.098,10.398,2.498,2.498,214.083,185.546,165.521
0.100,10.469,2.517,2.517,214.142,185.555,165.483
0.101,10.532,2.536,2.536,214.200,185.558,165.457
0.102,10.590,2.553,2.553,214.255,185.555,165.442
0.103,10.644,2.568,2.568,214.309,185.547,165.436
0.104,10.697,2.582,2.582,214.360,185.535,165.436
0.105,10.749,2.595,2.595,214.410,185.520,165.441
0.106,10.801,2.605,2.605,214.459,185.504,165.447
0.107,10.851,2.613,2.613,214.506,185.487,165.452
0.108,10.899,2.618,2.618,214.551,185.472,165.454
0.109,10.946,2.621,2.621,214.596,185.458,165.450
0.110,10.992,2.621,2.621,214.639,185.448,165.438
0.111,11.040,2.618,2.618,214.682,185.442,165.416
0.113,11.094,2.613,2.613,214.725,185.440,165.384
0.114,11.155,2.607,2.607,214.772,185.443,165.346
0.115,11.222,2.602,2.602,214.825,185.448,165.305
0.116,11.296,2.599,2.599,214.890,185.454,165.268
0.117,11.380,2.599,2.599,214.968,185.460,165.238
0.118,11.477,2.605,2.605,215.063,185.466,165.220
0.119,11.593,2.619,2.619,215.179,185.470,165.218
0.120,11.735,2.641,2.641,215.319,185.471,165.237
0.121,11.908,2.673,2.673,215.486,185.467,165.280
0.122,12.119,2.716,2.716,215.684,185.458,165.354
0.123,12.372,2.768,2.768,215.914,185.443,165.459
0.124,12.660,2.828,2.828,216.170,185.423,165.590
0.126,12.973,2.892,2.892,216.442,185.399,165.742
0.127,13.301,2.957,2.957,216.725,185.372,165.907
0.128,13.634,3.022,3.022,217.008,185.343,166.079
0.129,13.961,3.084,3.084,217.285,185.313,166.250
0.130,14.271,3.140,3.140,217.547,185.283,166.414
0.131,14.556,3.189,3.189,217.786,185.254,166.565
0.132,14.803,3.226,3.226,217.994,185.228,166.696
0.133,15.004,3.254,3.254,218.164,185.205,166.800
0.134,15.148,3.272,3.272,218.288,185.187,166.871
0.135,15.240,3.282,3.282,218.369,185.173,166.912
0.136,15.287,3.286,3.286,218.413,185.164,166.928
0.137,15.301,3.284,3.284,218.426,185.159,166.925
0.139,15.322,3.279,3.279,218.414,185.157,166.909
0.140,15.360,3.271,3.271,218.384,185.158,166.884
0.141,15.410,3.262,3.262,218.342,185.163,166.857
0.142,15.464,3.253,3.253,218.295,185.171,166.834
0.143,15.514,3.246,3.246,218.248,185.181,166.819
0.144,15.556,3.239,3.239,218.208,185.193,166.819
0.145,15.593,3.233,3.233,218.181,185.208,166.839
0.146,15.638,3.228,3.228,218.168,185.223,166.880
0.147,15.699,3.224,3.224,218.169,185.240,166.939
0.148,15.774,3.221,3.221,218.180,185.257,167.011
0.149,15.861,3.218,3.218,218.199,185.275,167.094
0.150,15.957,3.216,3.216,218.224,185.291,167.185
0.152,16.056,3.215,3.215,218.254,185.306,167.279
0.153,16.157,3.214,3.214,218.285,185.320,167.373
0.154,16.253,3.213,3.213,218.315,185.331,167.464
0.155,16.343,3.211,3.211,218.343,185.339,167.549
0.156,16.421,3.208,3.208,218.366,185.344,167.624
0.157,16.486,3.203,3.203,218.384,185.345,167.686
0.158,16.542,3.196,3.196,218.397,185.343,167.740
0.159,16.590,3.185,3.185,218.408,185.338,167.787
0.160,16.634,3.171,3.171,218.418,185.332,167.829
0.161,16.677,3.152,3.152,218.429,185.324,167.870
0.162,16.721,3.128,3.128,218.443,185.314,167.911
0.163,16.770,3.100,3.100,218.461,185.305,167.955
0.165,16.827,3.068,3.068,218.486,185.296,168.005
0.166,16.894,3.034,3.034,218.518,185.287,168.064
0.167,16.975,2.999,2.999,218.561,185.279,168.133
0.168,17.073,2.963,2.963,218.614,185.274,168.215
0.169,17.185,2.929,2.929,218.676,185.270,168.308
0.170,17.309,2.896,2.896,218.745,185.268,168.410
0.171,17.441,2.867,2.867,218.818,185.268,168.520
0.172,17.579,2.841,2.841,218.894,185.270,168.635
0.173,17.719,2.820,2.820,218.969,185.275,168.754
0.174,17.859,2.803,2.803,219.041,185.282,168.874
0.175,17.997,2.789,2.789,219.108,185.292,168.994
0.176,18.129,2.778,2.778,219.167,185.304,169.111
0.177,18.253,2.768,2.768,219.217,185.319,169.224
0.179,18.367,2.759,2.759,219.254,185.337,169.330
0.180,18.472,2.750,2.750,219.280,185.357,169.430
0.181,18.568,2.741,2.741,219.296,185.379,169.522
0.182,18.656,2.730,2.730,219.304,185.401,169.607
0.183,18.736,2.717,2.717,219.306,185.423,169.684
0.184,18.809,2.703,2.703,219.302,185.444,169.754
0.185,18.874,2.686,2.686,219.296,185.463,169.816
0.186,18.931,2.668,2.668,219.289,185.479,169.870
0.187,18.980,2.649,2.649,219.282,185.492,169.916
0.188,19.019,2.629,2.629,219.278,185.500,169.954
0.189,19.048,2.607,2.607,219.277,185.504,169.983
0.190,19.071,2.584,2.584,219.282,185.502,170.006
0.192,19.092,2.560,2.560,219.289,185.497,170.024
0.193,19.112,2.536,2.536,219.300,185.490,170.040
0.194,19.135,2.512,2.512,219.313,185.482,170.057
0.195,19.160,2.489,2.489,219.326,185.475,170.077
0.196,19.190,2.467,2.467,219.340,185.471,170.104
0.197,19.228,2.447,2.447,219.353,185.471,170.139
0.198,19.276,2.431,2.431,219.365,185.476,170.185
0.199,19.338,2.419,2.419,219.374,185.488,170.246
0.200,19.418,2.412,2.412,219.380,185.509,170.322
0.201,19.516,2.410,2.410,219.383,185.538,170.417
0.202,19.628,2.415,2.415,219.385,185.571,170.523
0.203,19.748,2.426,2.426,219.390,185.604,170.638
0.205,19.870,2.442,2.442,219.398,185.634,170.756
0.206,19.988,2.460,2.460,219.414,185.654,170.872
0.207,20.101,2.479,2.479,219.440,185.662,170.981
0.208,20.206,2.496,2.496,219.479,185.652,171.078
0.209,20.307,2.510,2.510,219.533,185.621,171.158
0.210,20.416,2.518,2.518,219.605,185.564,171.217
0.211,20.548,2.520,2.520,219.698,185.477,171.249
0.212,20.714,2.512,2.512,219.813,185.357,171.251
0.213,20.916,2.493,2.493,219.947,185.208,171.226
0.214,21.146,2.465,2.465,220.095,185.039,171.178
0.215,21.397,2.431,2.431,220.252,184.854,171.113
0.216,21.659,2.392,2.392,220.412,184.662,171.034
0.218,21.923,2.351,2.351,220.571,184.470,170.948
0.219,22.179,2.309,2.309,220.723,184.284,170.858
0.220,22.419,2.269,2.269,220.864,184.111,170.770
0.221,22.632,2.234,2.234,220.988,183.959,170.689
0.222,22.808,2.205,2.205,221.091,183.834,170.619
0.223,22.939,2.184,2.184,221.167,183.742,170.564
0.224,23.026,2.172,2.172,221.217,183.683,170.526
0.225,23.075,2.166,2.166,221.246,183.652,170.500
0.226,23.096,2.166,2.166,221.256,183.642,170.485
0.227,23.107,2.170,2.170,221.252,183.648,170.477
0.228,23.130,2.176,2.176,221.237,183.665,170.474
0.229,23.161,2.183,2.183,221.215,183.687,170.472
0.231,23.194,2.189,2.189,221.191,183.709,170.469
0.232,23.223,2.194,2.194,221.167,183.725,170.462
0.233,23.247,2.194,2.194,221.148,183.730,170.449
0.234,23.275,2.191,2.191,221.138,183.717,170.426
0.235,23.321,2.183,2.183,221.137,183.686,170.393
0.236,23.383,2.173,2.173,221.146,183.639,170.352
0.237,23.461,2.161,2.161,221.161,183.577,170.308
0.238,23.549,2.148,2.148,221.181,183.505,170.262
0.239,23.644,2.134,2.134,221.204,183.425,170.217
0.240,23.743,2.121,2.121,221.230,183.339,170.176
0.241,23.841,2.108,2.108,221.256,183.250,170.142
0.242,23.936,2.098,2.098,221.280,183.161,170.118
0.244,24.025,2.090,2.090,221.301,183.076,170.106
0.245,24.107,2.083,2.083,221.318,182.995,170.110
0.246,24.184,2.078,2.078,221.329,182.922,170.131
0.247,24.262,2.073,2.073,221.336,182.854,170.168
0.248,24.345,2.067,2.067,221.341,182.788,170.219
0.249,24.436,2.059,2.059,221.345,182.723,170.282
0.250,24.535,2.050,2.050,221.352,182.656,170.354
0.251,24.644,2.037,2.037,221.362,182.584,170.435
0.252,24.762,2.020,2.020,221.378,182.506,170.522
0.253,24.891,1.999,1.999,221.402,182.418,170.614
0.254,25.032,1.974,1.974,221.435,182.318,170.707
0.255,25.186,1.945,1.945,221.480,182.204,170.801
0.256,25.356,1.915,1.915,221.538,182.074,170.893
0.258,25.538,1.884,1.884,221.607,181.931,170.983
0.259,25.729,1.854,1.854,221.685,181.779,171.070
0.260,25.925,1.826,1.826,221.770,181.624,171.151
0.261,26.119,1.801,1.801,221.859,181.468,171.228
0.262,26.308,1.781,1.781,221.950,181.318,171.298
0.263,26.487,1.766,1.766,222.039,181.177,171.361
0.264,26.650,1.757,1.757,222.125,181.049,171.415
0.265,26.793,1.753,1.753,222.205,180.940,171.461
0.266,26.911,1.754,1.754,222.277,180.853,171.496
0.267,26.999,1.759,1.759,222.338,180.793,171.520
0.268,27.060,1.767,1.767,222.386,180.759,171.534
0.269,27.100,1.778,1.778,222.423,180.746,171.540
0.271,27.126,1.790,1.790,222.449,180.749,171.539
0.272,27.146,1.804,1.804,222.462,180.763,171.533
0.273,27.168,1.818,1.818,222.465,180.783,171.525
0.274,27.192,1.831,1.831,222.456,180.804,171.516
0.275,27.220,1.844,1.844,222.436,180.821,171.507
0.276,27.253,1.856,1.856,222.404,180.829,171.501
0.277,27.295,1.868,1.868,222.362,180.823,171.500
0.278,27.354,1.880,1.880,222.309,180.798,171.505
0.279,27.433,1.891,1.891,222.247,180.752,171.517
0.280,27.531,1.901,1.901,222.178,180.685,171.537
0.281,27.645,1.911,1.911,222.107,180.599,171.563
0.282,27.774,1.920,1.920,222.037,180.496,171.596
0.284,27.916,1.928,1.928,221.971,180.376,171.634
0.285,28.069,1.936,1.936,221.913,180.242,171.678
0.286,28.232,1.944,1.944,221.865,180.094,171.728
0.287,28.403,1.954,1.954,221.833,179.935,171.782
0.288,28.584,1.964,1.964,221.819,179.764,171.841
0.289,28.774,1.977,1.977,221.826,179.585,171.903
0.290,28.974,1.992,1.992,221.857,179.399,171.970
0.291,29.183,2.010,2.010,221.908,179.208,172.038
0.292,29.399,2.033,2.033,221.977,179.017,172.109
0.293,29.616,2.059,2.059,222.059,178.828,172.180
0.294,29.832,2.090,2.090,222.151,178.646,172.250
0.295,30.042,2.124,2.124,222.248,178.473,172.320
0.297,30.241,2.161,2.161,222.348,178.314,172.386
0.298,30.426,2.199,2.199,222.446,178.171,172.450
0.299,30.590,2.237,2.237,222.539,178.048,172.508
0.300,30.731,2.275,2.275,222.622,177.949,172.562
0.301,30.843,2.311,2.311,222.693,177.876,172.608
0.302,30.929,2.344,2.344,222.752,177.827,172.648
0.303,30.994,2.374,2.374,222.800,177.798,172.681
0.304,31.042,2.400,2.400,222.838,177.784,172.706
0.305,31.077,2.421,2.421,222.868,177.780,172.723
0.306,31.103,2.438,2.438,222.892,177.783,172.733
0.307,31.122,2.450,2.450,222.911,177.786,172.733
0.308,31.140,2.457,2.457,222.927,177.787,172.725
0.310,31.163,2.460,2.460,222.941,177.781,172.708
0.311,31.198,2.459,2.459,222.955,177.762,172.681
0.312,31.251,2.453,2.453,222.969,177.727,172.645
0.313,31.322,2.443,2.443,222.986,177.674,172.600
0.314,31.409,2.429,2.429,223.007,177.607,172.548
0.315,31.510,2.411,2.411,223.031,177.529,172.489
0.316,31.622,2.389,2.389,223.060,177.441,172.427
0.317,31.741,2.366,2.366,223.096,177.347,172.362
0.318,31.867,2.341,2.341,223.138,177.249,172.296
0.319,31.995,2.315,2.315,223.188,177.150,172.230
0.320,32.125,2.288,2.288,223.246,177.053,172.166
0.321,32.255,2.263,2.263,223.314,176.961,172.107
0.323,32.383,2.239,2.239,223.392,176.875,172.052
0.324,32.509,2.217,2.217,223.480,176.798,172.004
0.325,32.635,2.197,2.197,223.575,176.730,171.958
0.326,32.758,2.179,2.179,223.671,176.668,171.913
0.327,32.877,2.163,2.163,223.765,176.612,171.865
0.328,32.992,2.148,2.148,223.854,176.562,171.813
0.329,33.101,2.133,2.133,223.933,176.515,171.754
0.330,33.206,2.119,2.119,223.998,176.472,171.684
0.331,33.309,2.104,2.104,224.046,176.432,171.602
0.332,33.417,2.089,2.089,224.072,176.393,171.504
0.333,33.539,2.072,2.072,224.073,176.355,171.389
0.334,33.682,2.054,2.054,224.046,176.316,171.253
0.335,33.848,2.035,2.035,223.995,176.276,171.102
0.337,34.031,2.015,2.015,223.924,176.236,170.937
0.338,34.228,1.996,1.996,223.839,176.193,170.764
0.339,34.434,1.978,1.978,223.744,176.148,170.587
0.340,34.643,1.962,1.962,223.645,176.101,170.409
0.341,34.849,1.948,1.948,223.547,176.051,170.235
0.342,35.047,1.936,1.936,223.455,175.997,170.068
0.343,35.232,1.929,1.929,223.374,175.939,169.913
0.344,35.398,1.925,1.925,223.308,175.877,169.774
0.345,35.542,1.926,1.926,223.263,175.810,169.654
0.346,35.669,1.930,1.930,223.238,175.738,169.553
0.347,35.784,1.938,1.938,223.231,175.663,169.466
0.348,35.892,1.949,1.949,223.241,175.585,169.392
0.350,35.999,1.961,1.961,223.265,175.504,169.325
0.351,36.108,1.976,1.976,223.300,175.422,169.265
0.352,36.219,1.992,1.992,223.345,175.339,169.206
0.353,36.335,2.009,2.009,223.398,175.255,169.145
0.354,36.455,2.027,2.027,223.455,175.172,169.080
0.355,36.580,2.045,2.045,223.516,175.090,169.008
0.356,36.712,2.063,2.063,223.577,175.010,168.924
0.357,36.849,2.080,2.080,223.638,174.932,168.827
0.358,36.992,2.097,2.097,223.697,174.859,168.719
0.359,37.140,2.112,2.112,223.753,174.791,168.601
0.360,37.291,2.127,2.127,223.806,174.729,168.474
0.361,37.444,2.140,2.140,223.854,174.675,168.339
0.363,37.599,2.151,2.151,223.897,174.630,168.197
0.364,37.755,2.160,2.160,223.933,174.595,168.049
0.365,37.912,2.167,2.167,223.963,174.571,167.897
0.366,38.070,2.173,2.173,223.984,174.560,167.741
0.367,38.229,2.180,2.180,223.996,174.563,167.583
0.368,38.389,2.188,2.188,224.000,174.579,167.423
0.369,38.550,2.199,2.199,224.001,174.606,167.264
0.370,38.710,2.215,2.215,224.002,174.637,167.107
0.371,38.867,2.237,2.237,224.009,174.671,166.954
0.372,39.019,2.266,2.266,224.027,174.701,166.807
0.373,39.165,2.303,2.303,224.061,174.725,166.667
0.374,39.308,2.351,2.351,224.115,174.738,166.535
0.376,39.453,2.407,2.407,224.195,174.735,166.414
0.377,39.610,2.471,2.471,224.305,174.713,166.305
0.378,39.789,2.539,2.539,224.451,174.668,166.210
0.379,40.003,2.611,2.611,224.635,174.596,166.130
0.380,40.248,2.685,2.685,224.852,174.501,166.063
0.381,40.520,2.757,2.757,225.094,174.390,166.008
0.382,40.810,2.827,2.827,225.353,174.268,165.963
0.383,41.109,2.893,2.893,225.621,174.141,165.924
0.384,41.407,2.952,2.952,225.889,174.016,165.891
0.385,41.696,3.004,3.004,226.151,173.897,165.861
0.386,41.966,3.048,3.048,226.397,173.790,165.831
0.387,42.208,3.085,3.085,226.620,173.702,165.801
0.389,42.412,3.114,3.114,226.811,173.639,165.767
0.390,42.573,3.136,3.136,226.964,173.605,165.727
0.391,42.697,3.152,3.152,227.079,173.603,165.682
0.392,42.798,3.160,3.160,227.164,173.629,165.634
0.393,42.892,3.162,3.162,227.224,173.682,165.585
0.394,42.995,3.157,3.157,227.268,173.761,165.535
0.395,43.111,3.146,3.146,227.301,173.862,165.487
0.396,43.245,3.130,3.130,227.330,173.984,165.443
0.397,43.395,3.111,3.111,227.363,174.125,165.403
0.398,43.561,3.089,3.089,227.405,174.283,165.370
0.399,43.746,3.066,3.066,227.465,174.456,165.346
0.400,43.950,3.045,3.045,227.548,174.642,165.333
0.402,44.174,3.025,3.025,227.656,174.838,165.328
0.403,44.416,3.009,3.009,227.787,175.041,165.330
0.404,44.672,2.999,2.999,227.936,175.249,165.333
0.405,44.937,2.994,2.994,228.100,175.457,165.334
0.406,45.207,2.997,2.997,228.274,175.663,165.329
0.407,45.477,3.006,3.006,228.454,175.864,165.315
0.408,45.743,3.023,3.023,228.638,176.055,165.287
0.409,46.003,3.047,3.047,228.819,176.235,165.241
0.410,46.253,3.079,3.079,228.996,176.399,165.174
0.411,46.494,3.117,3.117,229.163,176.545,165.081
0.412,46.726,3.164,3.164,229.319,176.670,164.961
0.413,46.954,3.218,3.218,229.462,176.776,164.819
0.415,47.179,3.279,3.279,229.593,176.865,164.660
0.416,47.399,3.347,3.347,229.713,176.938,164.490
0.417,47.613,3.421,3.421,229.823,176.997,164.316
0.418,47.819,3.496,3.496,229.921,177.043,164.141
0.419,48.012,3.572,3.572,230.010,177.080,163.973
0.420,48.189,3.646,3.646,230.088,177.107,163.817
0.421,48.345,3.716,3.716,230.157,177.128,163.679
0.422,48.476,3.779,3.779,230.218,177.143,163.564
0.423,48.577,3.834,3.834,230.269,177.156,163.478
0.424,48.652,3.877,3.877,230.313,177.165,163.417
0.425,48.706,3.909,3.909,230.350,177.171,163.379
0.426,48.744,3.929,3.929,230.382,177.175,163.359
0.427,48.772,3.939,3.939,230.410,177.176,163.353
0.429,48.797,3.942,3.942,230.434,177.175,163.357
0.430,48.821,3.939,3.939,230.456,177.172,163.367
0.431,48.845,3.932,3.932,230.477,177.167,163.378
0.432,48.869,3.924,3.924,230.498,177.160,163.386
0.433,48.893,3.914,3.914,230.521,177.152,163.388
0.434,48.921,3.907,3.907,230.545,177.142,163.379
0.435,48.956,3.903,3.903,230.572,177.131,163.359
0.436,48.998,3.902,3.902,230.600,177.120,163.330
0.437,49.045,3.905,3.905,230.628,177.107,163.294
0.438,49.096,3.910,3.910,230.657,177.095,163.254
0.439,49.148,3.917,3.917,230.684,177.083,163.211
0.440,49.199,3.925,3.925,230.710,177.071,163.168
