"T","Distance","Radius","FreeRadius","X","Y","Z"
0.000,0.000,1.129,1.129,212.001,187.083,169.179
0.001,0.273,1.153,1.153,211.926,186.930,168.965
0.002,0.543,1.177,1.177,211.852,186.779,168.754
0.003,0.807,1.201,1.201,211.781,186.632,168.547
0.004,1.061,1.226,1.226,211.712,186.492,168.347
0.005,1.301,1.251,1.251,211.648,186.360,168.156
0.006,1.526,1.277,1.277,211.588,186.240,167.976
0.007,1.731,1.303,1.303,211.535,186.133,167.809
0.008,1.914,1.331,1.331,211.489,186.041,167.658
0.009,2.071,1.359,1.359,211.451,185.966,167.525
0.010,2.199,1.389,1.389,211.423,185.912,167.412
0.011,2.299,1.420,1.420,211.404,185.878,167.321
0.012,2.374,1.451,1.451,211.395,185.863,167.248
0.013,2.430,1.483,1.483,211.393,185.863,167.191
0.014,2.477,1.516,1.516,211.399,185.875,167.147
0.015,2.520,1.548,1.548,211.412,185.895,167.111
0.016,2.562,1.580,1.580,211.429,185.921,167.082
0.017,2.606,1.612,1.612,211.451,185.948,167.055
0.018,2.652,1.642,1.642,211.477,185.973,167.027
0.019,2.699,1.671,1.671,211.505,185.994,166.995
0.020,2.749,1.698,1.698,211.534,186.006,166.956
0.021,2.806,1.724,1.724,211.564,186.009,166.908
0.022,2.869,1.747,1.747,211.595,186.006,166.853
0.024,2.935,1.769,1.769,211.626,186.003,166.796
0.025,3.000,1.789,1.789,211.658,186.006,166.739
0.026,3.063,1.807,1.807,211.690,186.020,166.687
0.027,3.127,1.824,1.823,211.724,186.052,166.643
0.028,3.199,1.838,1.838,211.758,186.107,166.611
0.029,3.291,1.851,1.851,211.793,186.190,166.594
0.030,3.414,1.862,1.862,211.829,186.308,166.597
0.031,3.578,1.871,1.871,211.865,186.466,166.624
0.032,3.788,1.879,1.879,211.904,186.666,166.674
0.033,4.033,1.886,1.887,211.947,186.896,166.744
0.034,4.298,1.893,1.894,212.000,187.143,166.826
0.035,4.570,1.901,1.902,212.065,187.392,166.912
0.036,4.834,1.910,1.912,212.147,187.630,166.995
0.037,5.081,1.922,1.923,212.250,187.842,167.068
0.038,5.302,1.936,1.937,212.377,188.014,167.124
0.039,5.500,1.954,1.955,212.533,188.133,167.156
0.040,5.695,1.976,1.976,212.720,188.183,167.156
0.041,5.924,2.003,2.002,212.944,188.152,167.118
0.042,6.222,2.034,2.033,213.204,188.031,167.036
0.043,6.592,2.069,2.067,213.494,187.834,166.918
0.044,7.020,2.106,2.103,213.803,187.577,166.772
0.045,7.489,2.143,2.139,214.123,187.277,166.605
0.046,7.980,2.179,2.175,214.443,186.951,166.427
0.047,8.472,2.213,2.209,214.754,186.615,166.244
0.048,8.946,2.243,2.239,215.047,186.288,166.065
0.049,9.381,2.268,2.265,215.311,185.985,165.899
0.050,9.757,2.287,2.285,215.538,185.723,165.754
0.051,10.052,2.297,2.299,215.717,185.520,165.638
0.052,10.254,2.300,2.305,215.844,185.385,165.555
0.053,10.374,2.297,2.307,215.923,185.311,165.504
0.054,10.427,2.291,2.305,215.962,185.286,165.480
0.055,10.441,2.282,2.301,215.970,185.298,165.477
0.056,10.486,2.274,2.297,215.953,185.337,165.492
0.057,10.554,2.267,2.294,215.919,185.389,165.520
0.058,10.633,2.264,2.295,215.877,185.445,165.556
0.059,10.709,2.266,2.299,215.833,185.492,165.597
0.060,10.769,2.276,2.310,215.796,185.518,165.637
0.061,10.811,2.294,2.328,215.773,185.512,165.671
0.062,10.863,2.321,2.353,215.769,185.468,165.697
0.063,10.946,2.354,2.384,215.784,185.389,165.716
0.064,11.057,2.392,2.418,215.815,185.282,165.727
0.065,11.192,2.433,2.455,215.859,185.155,165.732
0.066,11.343,2.475,2.492,215.914,185.014,165.733
0.067,11.504,2.516,2.528,215.979,184.867,165.730
0.069,11.669,2.554,2.562,216.050,184.719,165.723
0.070,11.829,2.588,2.592,216.125,184.578,165.715
0.071,11.978,2.616,2.616,216.202,184.450,165.707
0.072,12.109,2.635,2.633,216.279,184.343,165.698
0.073,12.220,2.648,2.644,216.353,184.261,165.691
0.074,12.314,2.655,2.650,216.425,184.202,165.684
0.075,12.394,2.657,2.651,216.495,184.163,165.678
0.076,12.467,2.655,2.650,216.564,184.141,165.671
0.077,12.535,2.652,2.648,216.631,184.133,165.665
0.078,12.602,2.649,2.645,216.698,184.135,165.657
0.079,12.669,2.646,2.644,216.764,184.145,165.649
0.080,12.737,2.646,2.645,216.829,184.160,165.638
0.081,12.806,2.649,2.649,216.895,184.177,165.627
0.082,12.875,2.657,2.658,216.960,184.192,165.612
0.083,12.944,2.669,2.672,217.027,184.204,165.596
0.084,13.013,2.685,2.688,217.093,184.212,165.578
0.085,13.082,2.703,2.707,217.159,184.217,165.561
0.086,13.149,2.723,2.727,217.225,184.219,165.544
0.087,13.216,2.743,2.749,217.289,184.217,165.529
0.088,13.281,2.764,2.770,217.353,184.213,165.518
0.089,13.344,2.784,2.790,217.416,184.207,165.511
0.090,13.405,2.803,2.808,217.476,184.198,165.509
0.091,13.465,2.819,2.824,217.535,184.187,165.514
0.092,13.525,2.832,2.837,217.592,184.174,165.527
0.093,13.585,2.842,2.847,217.646,184.159,165.547
0.094,13.647,2.850,2.854,217.699,184.142,165.575
0.095,13.712,2.855,2.859,217.751,184.122,165.608
0.096,13.780,2.859,2.862,217.805,184.099,165.644
0.097,13.853,2.861,2.863,217.860,184.072,165.682
0.098,13.929,2.862,2.864,217.918,184.041,165.721
0.099,14.010,2.862,2.863,217.980,184.005,165.759
0.100,14.097,2.862,2.862,218.048,183.963,165.793
0.101,14.189,2.861,2.861,218.121,183.916,165.824
0.102,14.289,2.860,2.860,218.202,183.863,165.848
0.103,14.396,2.860,2.860,218.290,183.804,165.866
0.104,14.510,2.861,2.861,218.384,183.740,165.878
0.105,14.629,2.863,2.863,218.481,183.673,165.887
0.106,14.750,2.867,2.867,218.581,183.604,165.892
0.107,14.871,2.873,2.873,218.681,183.536,165.896
0.108,14.990,2.882,2.881,218.779,183.470,165.899
0.109,15.104,2.893,2.893,218.874,183.407,165.904
0.110,15.211,2.908,2.908,218.964,183.350,165.912
0.111,15.308,2.926,2.926,219.046,183.299,165.923
0.112,15.395,2.948,2.948,219.120,183.256,165.940
0.113,15.470,2.972,2.972,219.183,183.223,165.963
0.115,15.536,2.997,2.997,219.238,183.198,165.989
0.116,15.595,3.022,3.022,219.286,183.179,166.018
0.117,15.648,3.044,3.045,219.329,183.165,166.046
0.118,15.696,3.064,3.064,219.367,183.154,166.072
0.119,15.740,3.079,3.079,219.404,183.146,166.095
0.120,15.780,3.088,3.088,219.440,183.138,166.111
0.121,15.819,3.090,3.090,219.477,183.130,166.120
0.122,15.860,3.084,3.084,219.517,183.119,166.118
0.123,15.908,3.068,3.068,219.561,183.104,166.105
0.124,15.967,3.043,3.043,219.609,183.085,166.078
0.125,16.038,3.010,3.009,219.662,183.062,166.036
0.126,16.124,2.967,2.967,219.717,183.035,165.977
0.127,16.224,2.915,2.915,219.775,183.005,165.900
0.128,16.342,2.855,2.855,219.832,182.972,165.803
0.129,16.478,2.787,2.786,219.889,182.936,165.684
0.130,16.634,2.709,2.709,219.944,182.899,165.543
0.131,16.811,2.624,2.624,219.996,182.859,165.378
0.132,17.012,2.530,2.530,220.044,182.819,165.187
0.133,17.239,2.430,2.430,220.087,182.779,164.969
0.134,17.489,2.325,2.325,220.124,182.738,164.724
0.135,17.758,2.218,2.218,220.155,182.698,164.460
0.136,18.041,2.112,2.112,220.178,182.659,164.181
0.137,18.330,2.009,2.009,220.196,182.623,163.894
0.138,18.620,1.911,1.911,220.206,182.589,163.607
0.139,18.905,1.821,1.822,220.209,182.559,163.324
0.140,19.178,1.742,1.742,220.204,182.533,163.052
0.141,19.433,1.675,1.675,220.192,182.511,162.798
0.142,19.664,1.623,1.623,220.172,182.496,162.568
0.143,19.866,1.586,1.586,220.144,182.487,162.368
0.144,20.037,1.562,1.561,220.109,182.484,162.202
0.145,20.179,1.548,1.547,220.067,182.487,162.066
0.146,20.297,1.543,1.542,220.022,182.494,161.957
0.147,20.394,1.544,1.544,219.973,182.505,161.873
0.148,20.475,1.551,1.550,219.925,182.518,161.810
0.149,20.543,1.561,1.560,219.877,182.532,161.764
0.150,20.599,1.571,1.571,219.832,182.546,161.733
0.151,20.646,1.581,1.581,219.791,182.559,161.714
0.152,20.684,1.588,1.588,219.757,182.570,161.702
0.153,20.712,1.592,1.593,219.731,182.578,161.696
0.154,20.730,1.594,1.596,219.714,182.583,161.692
0.155,20.741,1.594,1.597,219.703,182.584,161.689
0.156,20.747,1.593,1.596,219.698,182.582,161.686
0.157,20.752,1.592,1.595,219.698,182.579,161.683
0.158,20.760,1.590,1.593,219.700,182.573,161.677
0.160,20.771,1.589,1.592,219.702,182.566,161.669
0.161,20.786,1.589,1.590,219.704,182.559,161.656
0.162,20.806,1.590,1.590,219.703,182.551,161.638
0.163,20.832,1.593,1.591,219.699,182.543,161.613
0.164,20.866,1.598,1.594,219.689,182.537,161.581
0.165,20.909,1.603,1.596,219.673,182.530,161.542
0.166,20.960,1.608,1.599,219.653,182.523,161.495
0.167,21.019,1.611,1.601,219.629,182.513,161.443
0.168,21.082,1.613,1.602,219.603,182.498,161.387
0.169,21.151,1.612,1.601,219.576,182.477,161.328
0.170,21.224,1.607,1.598,219.550,182.449,161.266
0.171,21.301,1.598,1.592,219.526,182.411,161.203
0.172,21.383,1.583,1.583,219.505,182.362,161.141
0.173,21.471,1.562,1.571,219.489,182.301,161.079
0.174,21.567,1.537,1.555,219.480,182.225,161.021
0.175,21.673,1.509,1.538,219.477,182.135,160.965
0.176,21.785,1.478,1.518,219.479,182.035,160.913
0.177,21.903,1.446,1.498,219.486,181.928,160.865
0.178,22.022,1.415,1.478,219.497,181.818,160.822
0.179,22.140,1.386,1.458,219.509,181.708,160.782
0.180,22.252,1.359,1.439,219.523,181.602,160.748
0.181,22.356,1.337,1.422,219.536,181.503,160.718
0.182,22.447,1.321,1.407,219.549,181.416,160.693
0.183,22.522,1.311,1.396,219.559,181.344,160.675
0.184,22.578,1.306,1.387,219.566,181.291,160.661
0.185,22.613,1.305,1.381,219.569,181.256,160.654
0.186,22.631,1.308,1.377,219.569,181.238,160.651
0.187,22.637,1.312,1.375,219.568,181.233,160.651
0.188,22.643,1.318,1.374,219.565,181.237,160.654
0.189,22.654,1.323,1.374,219.563,181.247,160.658
0.190,22.667,1.326,1.375,219.560,181.259,160.663
0.191,22.679,1.327,1.376,219.560,181.271,160.666
0.192,22.687,1.325,1.378,219.562,181.278,160.668
0.193,22.693,1.318,1.379,219.568,181.277,160.666
0.194,22.709,1.307,1.380,219.578,181.266,160.660
0.195,22.739,1.294,1.380,219.592,181.241,160.650
0.196,22.783,1.279,1.379,219.611,181.205,160.635
0.197,22.839,1.262,1.377,219.634,181.157,160.617
0.198,22.907,1.245,1.374,219.661,181.099,160.595
0.199,22.986,1.228,1.368,219.692,181.031,160.569
0.200,23.074,1.212,1.361,219.726,180.954,160.541
0.201,23.172,1.198,1.351,219.762,180.869,160.510
0.202,23.278,1.185,1.339,219.801,180.776,160.477
0.203,23.391,1.176,1.324,219.843,180.677,160.442
0.204,23.510,1.169,1.307,219.886,180.572,160.406
0.206,23.634,1.163,1.289,219.931,180.463,160.368
0.207,23.761,1.159,1.270,219.979,180.354,160.326
0.208,23.888,1.156,1.250,220.031,180.247,160.279
0.209,24.016,1.154,1.230,220.085,180.145,160.224
0.210,24.143,1.152,1.212,220.145,180.052,160.161
0.211,24.269,1.149,1.194,220.209,179.972,160.087
0.212,24.398,1.146,1.178,220.278,179.907,160.001
0.213,24.532,1.142,1.164,220.353,179.860,159.901
0.214,24.676,1.138,1.153,220.435,179.835,159.785
0.215,24.836,1.132,1.145,220.524,179.835,159.651
0.216,25.016,1.127,1.139,220.620,179.859,159.501
0.217,25.212,1.123,1.135,220.719,179.904,159.338
0.218,25.420,1.120,1.134,220.821,179.964,159.166
0.219,25.636,1.119,1.135,220.922,180.035,158.989
0.220,25.854,1.120,1.139,221.021,180.112,158.811
0.221,26.068,1.123,1.145,221.114,180.191,158.636
0.222,26.272,1.131,1.154,221.201,180.267,158.467
0.223,26.460,1.142,1.165,221.278,180.335,158.309
0.224,26.628,1.156,1.179,221.343,180.390,158.166
0.225,26.768,1.174,1.195,221.395,180.429,158.041
0.226,26.883,1.194,1.213,221.432,180.450,157.934
0.227,26.977,1.217,1.233,221.456,180.456,157.843
0.228,27.057,1.241,1.255,221.469,180.451,157.765
0.229,27.128,1.266,1.280,221.474,180.438,157.695
0.230,27.194,1.292,1.305,221.470,180.420,157.631
0.231,27.259,1.318,1.333,221.461,180.402,157.570
0.232,27.326,1.343,1.362,221.448,180.386,157.507
0.233,27.396,1.368,1.393,221.433,180.375,157.439
0.234,27.473,1.391,1.425,221.418,180.374,157.364
0.235,27.561,1.415,1.458,221.403,180.385,157.277
0.236,27.663,1.438,1.492,221.391,180.410,157.179
0.237,27.777,1.462,1.526,221.382,180.445,157.071
0.238,27.900,1.487,1.561,221.375,180.488,156.956
0.239,28.028,1.514,1.597,221.371,180.538,156.838
0.240,28.160,1.542,1.632,221.370,180.590,156.717
0.241,28.291,1.573,1.667,221.373,180.644,156.597
0.242,28.419,1.607,1.702,221.378,180.696,156.481
0.243,28.539,1.644,1.736,221.388,180.744,156.371
0.244,28.650,1.682,1.769,221.401,180.786,156.269
0.245,28.748,1.722,1.800,221.418,180.818,156.178
0.246,28.834,1.762,1.829,221.439,180.842,156.098
0.247,28.910,1.800,1.856,221.464,180.858,156.029
0.248,28.978,1.835,1.878,221.492,180.868,155.967
0.249,29.041,1.866,1.897,221.523,180.873,155.913
0.251,29.101,1.892,1.911,221.556,180.876,155.863
0.252,29.159,1.912,1.920,221.593,180.878,155.817
0.253,29.218,1.924,1.923,221.631,180.881,155.773
0.254,29.277,1.927,1.921,221.671,180.887,155.729
0.255,29.340,1.923,1.913,221.713,180.896,155.684
0.256,29.406,1.912,1.900,221.756,180.912,155.636
0.257,29.475,1.897,1.885,221.798,180.932,155.585
0.258,29.544,1.879,1.867,221.837,180.953,155.532
0.259,29.610,1.858,1.849,221.869,180.970,155.478
0.260,29.669,1.837,1.830,221.892,180.980,155.424
0.261,29.723,1.817,1.812,221.903,180.979,155.371
0.262,29.777,1.798,1.796,221.898,180.962,155.321
0.263,29.841,1.783,1.783,221.874,180.926,155.273
0.264,29.927,1.773,1.775,221.829,180.866,155.230
0.265,30.046,1.767,1.770,221.759,180.778,155.193
0.266,30.202,1.766,1.769,221.662,180.659,155.161
0.267,30.396,1.770,1.773,221.539,180.512,155.135
0.268,30.617,1.779,1.782,221.398,180.344,155.109
0.269,30.855,1.793,1.796,221.244,180.165,155.080
0.270,31.099,1.813,1.815,221.084,179.984,155.042
0.271,31.341,1.838,1.839,220.925,179.809,154.994
0.272,31.570,1.868,1.869,220.773,179.649,154.929
0.273,31.782,1.904,1.904,220.635,179.514,154.844
0.274,31.972,1.945,1.944,220.518,179.410,154.735
0.275,32.148,1.990,1.989,220.427,179.349,154.597
0.276,32.328,2.038,2.037,220.370,179.337,154.427
0.277,32.532,2.087,2.087,220.347,179.375,154.227
0.278,32.768,2.137,2.136,220.350,179.454,154.005
0.279,33.032,2.186,2.185,220.376,179.565,153.767
0.280,33.315,2.233,2.232,220.417,179.699,153.522
0.281,33.606,2.276,2.275,220.468,179.849,153.276
0.282,33.896,2.314,2.314,220.523,180.004,153.039
0.283,34.172,2.346,2.347,220.576,180.158,152.816
0.284,34.422,2.373,2.373,220.622,180.301,152.616
0.285,34.634,2.393,2.394,220.654,180.424,152.445
0.286,34.798,2.410,2.410,220.667,180.519,152.313
0.287,34.914,2.423,2.423,220.661,180.585,152.218
0.288,34.991,2.433,2.433,220.638,180.625,152.156
0.289,35.044,2.442,2.442,220.603,180.643,152.121
0.290,35.089,2.450,2.450,220.559,180.644,152.110
0.291,35.140,2.458,2.458,220.509,180.630,152.115
0.292,35.199,2.468,2.468,220.459,180.607,152.134
0.293,35.261,2.480,2.480,220.411,180.578,152.159
0.294,35.320,2.494,2.494,220.368,180.547,152.186
0.296,35.370,2.509,2.509,220.336,180.518,152.211
0.297,35.405,2.523,2.523,220.316,180.494,152.227
0.298,35.424,2.536,2.536,220.309,180.477,152.233
0.299,35.439,2.546,2.546,220.312,180.464,152.226
0.300,35.465,2.551,2.551,220.322,180.452,152.205
0.301,35.505,2.551,2.551,220.336,180.441,152.170
0.302,35.561,2.545,2.545,220.352,180.426,152.118
0.303,35.634,2.531,2.531,220.365,180.407,152.049
0.304,35.726,2.507,2.507,220.373,180.381,151.961
0.305,35.840,2.476,2.476,220.374,180.346,151.852
0.306,35.978,2.438,2.438,220.363,180.300,151.723
0.307,36.143,2.395,2.395,220.339,180.239,151.571
0.308,36.335,2.351,2.351,220.301,180.166,151.398
0.309,36.547,2.306,2.306,220.253,180.082,151.209
0.310,36.775,2.263,2.263,220.198,179.988,151.008
0.311,37.014,2.223,2.223,220.139,179.887,150.800
0.312,37.259,2.189,2.189,220.079,179.780,150.588
0.313,37.503,2.163,2.163,220.020,179.670,150.378
0.314,37.743,2.146,2.146,219.966,179.558,150.173
0.315,37.972,2.138,2.138,219.920,179.447,149.978
0.316,38.186,2.138,2.138,219.884,179.339,149.797
0.317,38.380,2.145,2.145,219.863,179.234,149.635
0.318,38.555,2.156,2.156,219.855,179.135,149.492
0.319,38.712,2.171,2.171,219.861,179.040,149.367
0.320,38.855,2.187,2.187,219.880,178.948,149.258
0.321,38.987,2.205,2.205,219.910,178.860,149.165
0.322,39.110,2.221,2.221,219.952,178.776,149.087
0.323,39.227,2.236,2.236,220.004,178.693,149.021
0.324,39.342,2.247,2.247,220.066,178.613,148.967
0.325,39.456,2.255,2.255,220.136,178.534,148.924
0.326,39.571,2.260,2.260,220.214,178.457,148.889
0.327,39.689,2.263,2.263,220.299,178.380,148.863
0.328,39.808,2.264,2.264,220.389,178.304,148.843
0.329,39.928,2.265,2.265,220.482,178.230,148.829
0.330,40.045,2.265,2.265,220.575,178.158,148.821
0.331,40.159,2.265,2.265,220.667,178.090,148.818
0.332,40.268,2.267,2.267,220.754,178.027,148.818
0.333,40.367,2.269,2.269,220.834,177.968,148.821
0.334,40.457,2.274,2.274,220.906,177.915,148.827
0.335,40.533,2.280,2.280,220.966,177.868,148.834
0.336,40.594,2.288,2.288,221.013,177.829,148.842
0.337,40.639,2.296,2.296,221.044,177.798,148.849
0.338,40.668,2.305,2.305,221.060,177.775,148.857
0.339,40.686,2.315,2.315,221.064,177.759,148.863
0.340,40.697,2.324,2.324,221.061,177.750,148.868
0.342,40.707,2.333,2.333,221.052,177.746,148.872
0.343,40.717,2.342,2.342,221.042,177.749,148.874
0.344,40.728,2.350,2.350,221.033,177.755,148.874
0.345,40.740,2.356,2.356,221.029,177.766,148.872
0.346,40.756,2.360,2.360,221.033,177.780,148.867
0.347,40.780,2.360,2.360,221.049,177.797,148.859
0.348,40.816,2.357,2.357,221.078,177.815,148.847
0.349,40.867,2.349,2.349,221.123,177.834,148.832
0.350,40.933,2.334,2.334,221.183,177.852,148.813
0.351,41.012,2.313,2.313,221.257,177.867,148.789
0.352,41.105,2.285,2.285,221.345,177.876,148.761
0.353,41.212,2.247,2.247,221.447,177.878,148.727
0.354,41.334,2.201,2.201,221.562,177.870,148.688
0.355,41.471,2.145,2.145,221.690,177.852,148.643
0.356,41.623,2.082,2.082,221.830,177.821,148.591
0.357,41.793,2.014,2.014,221.983,177.775,148.532
0.358,41.980,1.946,1.946,222.147,177.712,148.466
0.359,42.183,1.878,1.878,222.319,177.635,148.395
0.360,42.395,1.814,1.814,222.497,177.547,148.320
0.361,42.612,1.756,1.756,222.676,177.451,148.244
0.362,42.828,1.707,1.707,222.852,177.350,148.170
0.363,43.038,1.670,1.670,223.022,177.250,148.098
0.364,43.236,1.647,1.647,223.181,177.152,148.033
0.365,43.416,1.638,1.638,223.326,177.060,147.976
0.366,43.574,1.642,1.642,223.453,176.979,147.929
0.367,43.704,1.654,1.654,223.558,176.911,147.895
0.368,43.801,1.673,1.673,223.638,176.860,147.876
0.369,43.868,1.694,1.694,223.694,176.824,147.870
0.370,43.912,1.716,1.716,223.730,176.797,147.872
0.371,43.941,1.735,1.735,223.749,176.777,147.879
0.372,43.964,1.749,1.749,223.756,176.757,147.888
0.373,43.987,1.753,1.753,223.754,176.734,147.893
0.374,44.019,1.746,1.746,223.747,176.703,147.892
0.375,44.065,1.728,1.728,223.739,176.660,147.880
0.376,44.131,1.699,1.699,223.734,176.599,147.854
0.377,44.225,1.662,1.662,223.735,176.517,147.809
0.378,44.352,1.619,1.619,223.746,176.410,147.743
0.379,44.510,1.571,1.571,223.767,176.279,147.656
0.380,44.693,1.522,1.522,223.796,176.130,147.553
0.381,44.893,1.472,1.472,223.831,175.969,147.440
0.382,45.103,1.424,1.424,223.870,175.802,147.319
0.383,45.317,1.380,1.380,223.912,175.632,147.196
0.384,45.527,1.342,1.342,223.955,175.467,147.074
0.385,45.725,1.310,1.310,223.996,175.311,146.959
0.387,45.906,1.284,1.284,224.035,175.169,146.853
0.388,46.060,1.265,1.265,224.069,175.048,146.763
0.389,46.184,1.251,1.251,224.096,174.951,146.691
0.390,46.277,1.243,1.243,224.119,174.879,146.637
0.391,46.346,1.241,1.241,224.139,174.826,146.597
0.392,46.397,1.244,1.244,224.161,174.790,146.568
0.393,46.438,1.252,1.252,224.186,174.767,146.546
0.394,46.477,1.265,1.265,224.218,174.753,146.529
0.395,46.522,1.283,1.283,224.258,174.743,146.512
0.396,46.578,1.305,1.305,224.311,174.735,146.494
0.397,46.651,1.330,1.330,224.379,174.725,146.469
0.398,46.745,1.358,1.358,224.464,174.709,146.435
0.399,46.862,1.388,1.388,224.570,174.684,146.389
0.400,47.002,1.420,1.420,224.693,174.649,146.332
0.401,47.159,1.452,1.452,224.829,174.607,146.267
0.402,47.326,1.485,1.485,224.973,174.560,146.196
0.403,47.500,1.516,1.516,225.121,174.508,146.121
0.404,47.674,1.547,1.547,225.268,174.455,146.045
0.405,47.843,1.575,1.575,225.410,174.401,145.972
0.406,48.001,1.601,1.601,225.543,174.348,145.903
0.407,48.143,1.626,1.626,225.661,174.299,145.840
0.408,48.264,1.648,1.648,225.760,174.254,145.788
0.409,48.359,1.670,1.670,225.836,174.216,145.746
0.410,48.428,1.690,1.690,225.890,174.184,145.717
0.411,48.478,1.709,1.709,225.926,174.156,145.698
0.412,48.512,1.727,1.727,225.947,174.130,145.688
0.413,48.539,1.745,1.745,225.955,174.105,145.686
0.414,48.566,1.762,1.762,225.953,174.078,145.691
0.415,48.597,1.778,1.778,225.946,174.050,145.702
0.416,48.634,1.795,1.795,225.936,174.017,145.717
