"T","Distance","Radius","FreeRadius","X","Y","Z"
0.000,0.000,1.329,1.329,-8.930,22.613,22.460
0.001,0.175,1.405,1.405,-9.040,22.574,22.590
0.003,0.346,1.482,1.482,-9.147,22.537,22.718
0.004,0.509,1.558,1.558,-9.246,22.507,22.844
0.006,0.660,1.634,1.634,-9.334,22.486,22.965
0.007,0.796,1.709,1.709,-9.406,22.479,23.080
0.009,0.917,1.784,1.784,-9.461,22.487,23.188
0.010,1.025,1.858,1.858,-9.492,22.516,23.287
0.011,1.127,1.931,1.931,-9.498,22.566,23.375
0.013,1.238,2.003,2.003,-9.473,22.643,23.452
0.014,1.369,2.075,2.075,-9.422,22.744,23.518
0.016,1.522,2.146,2.146,-9.350,22.867,23.573
0.017,1.693,2.217,2.217,-9.264,23.007,23.621
0.018,1.876,2.287,2.287,-9.172,23.160,23.661
0.020,2.067,2.356,2.356,-9.079,23.323,23.696
0.021,2.259,2.426,2.426,-8.993,23.491,23.727
0.023,2.446,2.495,2.495,-8.920,23.662,23.755
0.024,2.625,2.563,2.563,-8.867,23.830,23.783
0.026,2.794,2.630,2.630,-8.839,23.995,23.811
0.027,2.955,2.696,2.696,-8.830,24.153,23.837
0.028,3.110,2.760,2.760,-8.838,24.306,23.863
0.030,3.260,2.823,2.823,-8.857,24.453,23.885
0.031,3.405,2.883,2.883,-8.884,24.594,23.905
0.033,3.543,2.942,2.942,-8.914,24.727,23.921
0.034,3.673,2.997,2.997,-8.943,24.854,23.931
0.035,3.794,3.048,3.048,-8.967,24.972,23.936
0.037,3.905,3.095,3.095,-8.982,25.083,23.935
0.038,4.007,3.138,3.138,-8.988,25.184,23.928
0.040,4.100,3.175,3.175,-8.987,25.277,23.917
0.041,4.183,3.206,3.206,-8.981,25.359,23.904
0.043,4.256,3.231,3.231,-8.973,25.430,23.890
0.044,4.318,3.252,3.252,-8.964,25.490,23.877
0.045,4.367,3.268,3.268,-8.956,25.537,23.866
0.047,4.402,3.282,3.282,-8.951,25.571,23.860
0.048,4.423,3.293,3.293,-8.951,25.592,23.859
0.050,4.434,3.303,3.303,-8.957,25.600,23.863
0.051,4.446,3.313,3.313,-8.965,25.601,23.872
0.052,4.459,3.322,3.322,-8.973,25.597,23.881
0.054,4.470,3.332,3.332,-8.978,25.594,23.891
0.055,4.477,3.342,3.342,-8.979,25.597,23.898
0.057,4.491,3.352,3.352,-8.971,25.608,23.900
0.058,4.522,3.363,3.363,-8.953,25.632,23.896
0.060,4.576,3.373,3.373,-8.921,25.675,23.883
0.061,4.656,3.382,3.382,-8.876,25.737,23.861
0.062,4.758,3.392,3.392,-8.819,25.816,23.831
0.064,4.874,3.401,3.401,-8.756,25.907,23.796
0.065,4.998,3.408,3.408,-8.691,26.006,23.759
0.067,5.122,3.413,3.413,-8.628,26.106,23.723
0.068,5.239,3.415,3.415,-8.573,26.204,23.690
0.070,5.343,3.415,3.415,-8.529,26.294,23.663
0.071,5.427,3.410,3.410,-8.501,26.372,23.645
0.072,5.489,3.401,3.401,-8.494,26.432,23.639
0.074,5.534,3.390,3.390,-8.506,26.476,23.643
0.075,5.575,3.378,3.378,-8.534,26.503,23.656
0.077,5.623,3.366,3.366,-8.574,26.517,23.676
0.078,5.677,3.357,3.357,-8.623,26.520,23.700
0.079,5.737,3.350,3.350,-8.677,26.514,23.726
0.081,5.799,3.349,3.349,-8.731,26.501,23.752
0.082,5.858,3.353,3.353,-8.783,26.483,23.776
0.084,5.911,3.363,3.363,-8.827,26.462,23.795
0.085,5.955,3.377,3.378,-8.863,26.440,23.808
0.087,5.993,3.395,3.395,-8.892,26.417,23.817
0.088,6.026,3.414,3.414,-8.915,26.395,23.824
0.089,6.056,3.434,3.434,-8.934,26.372,23.831
0.091,6.085,3.453,3.453,-8.951,26.350,23.839
0.092,6.114,3.471,3.471,-8.968,26.330,23.850
0.094,6.145,3.483,3.482,-8.987,26.311,23.866
0.095,6.181,3.483,3.482,-9.009,26.294,23.889
0.096,6.226,3.465,3.465,-9.036,26.279,23.922
0.098,6.284,3.426,3.426,-9.069,26.267,23.969
0.099,6.362,3.359,3.359,-9.108,26.257,24.035
0.101,6.466,3.259,3.259,-9.153,26.249,24.128
0.102,6.601,3.123,3.123,-9.206,26.243,24.252
0.104,6.774,2.955,2.956,-9.267,26.239,24.414
0.105,6.990,2.767,2.769,-9.336,26.236,24.619
0.106,7.256,2.570,2.572,-9.413,26.234,24.874
0.108,7.578,2.375,2.376,-9.499,26.233,25.183
0.109,7.950,2.191,2.192,-9.593,26.233,25.544
0.111,8.359,2.031,2.031,-9.691,26.233,25.940
0.112,8.788,1.903,1.902,-9.791,26.230,26.358
0.113,9.223,1.808,1.806,-9.889,26.226,26.781
0.115,9.648,1.742,1.738,-9.983,26.217,27.196
0.116,10.047,1.697,1.692,-10.069,26.205,27.585
0.118,10.406,1.668,1.663,-10.144,26.186,27.936
0.119,10.708,1.650,1.647,-10.205,26.161,28.231
0.121,10.946,1.637,1.637,-10.251,26.130,28.462
0.122,11.125,1.623,1.628,-10.286,26.093,28.634
0.123,11.258,1.606,1.619,-10.315,26.053,28.757
0.125,11.356,1.587,1.608,-10.346,26.013,28.841
0.126,11.433,1.566,1.597,-10.383,25.974,28.896
0.128,11.503,1.544,1.584,-10.433,25.940,28.931
0.129,11.580,1.522,1.571,-10.500,25.911,28.955
0.130,11.677,1.501,1.556,-10.592,25.890,28.980
0.132,11.802,1.481,1.541,-10.712,25.880,29.012
0.133,11.953,1.464,1.525,-10.858,25.880,29.055
0.135,12.124,1.447,1.509,-11.021,25.887,29.105
0.136,12.304,1.433,1.493,-11.192,25.899,29.159
0.138,12.485,1.421,1.479,-11.364,25.914,29.214
0.139,12.658,1.410,1.467,-11.527,25.929,29.267
0.140,12.813,1.401,1.458,-11.674,25.943,29.315
0.142,12.941,1.393,1.451,-11.795,25.953,29.355
0.143,13.033,1.387,1.449,-11.883,25.957,29.384
0.145,13.087,1.383,1.449,-11.934,25.954,29.401
0.146,13.112,1.381,1.452,-11.957,25.947,29.409
0.148,13.121,1.381,1.457,-11.959,25.939,29.412
0.149,13.132,1.382,1.463,-11.951,25.932,29.412
0.150,13.144,1.386,1.470,-11.940,25.930,29.414
0.152,13.153,1.391,1.477,-11.935,25.936,29.420
0.153,13.177,1.399,1.484,-11.945,25.952,29.434
0.155,13.228,1.407,1.489,-11.978,25.981,29.460
0.156,13.316,1.415,1.493,-12.042,26.026,29.499
0.157,13.435,1.422,1.493,-12.132,26.084,29.551
0.159,13.576,1.426,1.489,-12.241,26.151,29.611
0.160,13.731,1.427,1.479,-12.361,26.222,29.678
0.162,13.890,1.423,1.464,-12.485,26.293,29.747
0.163,14.044,1.414,1.443,-12.606,26.360,29.816
0.165,14.184,1.400,1.417,-12.715,26.419,29.881
0.166,14.301,1.382,1.388,-12.806,26.465,29.939
0.167,14.387,1.361,1.359,-12.870,26.495,29.987
0.169,14.443,1.337,1.330,-12.907,26.510,30.026
0.170,14.480,1.312,1.305,-12.918,26.514,30.061
0.172,14.516,1.285,1.285,-12.908,26.512,30.097
0.173,14.566,1.259,1.272,-12.879,26.511,30.137
0.174,14.633,1.234,1.265,-12.836,26.517,30.187
0.176,14.719,1.212,1.264,-12.781,26.533,30.252
0.177,14.830,1.195,1.270,-12.718,26.567,30.337
0.179,14.969,1.185,1.280,-12.651,26.623,30.445
0.180,15.142,1.183,1.295,-12.582,26.704,30.581
0.182,15.342,1.191,1.313,-12.513,26.806,30.739
0.183,15.563,1.211,1.335,-12.448,26.923,30.916
0.184,15.797,1.241,1.360,-12.387,27.047,31.104
0.186,16.037,1.279,1.386,-12.334,27.174,31.301
0.187,16.275,1.321,1.414,-12.290,27.297,31.500
0.189,16.504,1.365,1.442,-12.258,27.410,31.696
0.190,16.716,1.408,1.470,-12.239,27.506,31.884
0.191,16.907,1.448,1.496,-12.236,27.581,32.060
0.193,17.078,1.482,1.521,-12.246,27.634,32.222
0.194,17.233,1.510,1.544,-12.267,27.668,32.371
0.196,17.373,1.533,1.566,-12.295,27.688,32.508
0.197,17.502,1.552,1.586,-12.326,27.695,32.632
0.199,17.619,1.569,1.607,-12.358,27.694,32.745
0.200,17.726,1.584,1.628,-12.386,27.688,32.848
0.201,17.821,1.599,1.650,-12.407,27.680,32.940
0.203,17.905,1.614,1.674,-12.418,27.673,33.024
0.204,17.980,1.631,1.698,-12.417,27.670,33.098
0.206,18.048,1.649,1.724,-12.407,27.670,33.165
0.207,18.110,1.667,1.748,-12.391,27.673,33.226
0.209,18.170,1.686,1.771,-12.370,27.679,33.281
0.210,18.226,1.705,1.792,-12.349,27.688,33.332
0.211,18.279,1.725,1.810,-12.328,27.699,33.380
0.213,18.329,1.744,1.823,-12.313,27.712,33.426
0.214,18.377,1.763,1.833,-12.303,27.727,33.470
0.216,18.425,1.780,1.837,-12.303,27.743,33.515
0.217,18.475,1.794,1.838,-12.309,27.763,33.561
0.218,18.528,1.804,1.834,-12.318,27.785,33.609
0.220,18.586,1.809,1.827,-12.326,27.812,33.659
0.221,18.648,1.809,1.815,-12.330,27.844,33.712
0.223,18.717,1.801,1.799,-12.326,27.882,33.770
0.224,18.796,1.787,1.780,-12.310,27.927,33.832
0.226,18.888,1.768,1.759,-12.279,27.980,33.901
0.227,18.996,1.748,1.739,-12.230,28.042,33.975
0.228,19.122,1.728,1.721,-12.164,28.112,34.055
0.230,19.259,1.712,1.707,-12.085,28.187,34.139
0.231,19.404,1.701,1.699,-11.998,28.266,34.223
0.233,19.549,1.699,1.699,-11.908,28.345,34.306
0.234,19.691,1.705,1.707,-11.820,28.422,34.386
0.235,19.822,1.719,1.722,-11.739,28.495,34.459
0.237,19.938,1.739,1.741,-11.669,28.561,34.523
0.238,20.033,1.761,1.763,-11.616,28.618,34.577
0.240,20.103,1.784,1.786,-11.582,28.664,34.619
0.241,20.154,1.806,1.807,-11.566,28.701,34.650
0.243,20.190,1.824,1.824,-11.562,28.729,34.671
0.244,20.216,1.836,1.836,-11.568,28.750,34.686
0.245,20.237,1.843,1.843,-11.579,28.765,34.695
0.247,20.255,1.845,1.845,-11.594,28.776,34.700
0.248,20.271,1.843,1.843,-11.607,28.783,34.703
0.250,20.281,1.837,1.837,-11.615,28.788,34.706
0.251,20.288,1.828,1.828,-11.615,28.792,34.711
0.252,20.301,1.816,1.816,-11.608,28.797,34.721
0.254,20.326,1.801,1.801,-11.593,28.804,34.740
0.255,20.365,1.785,1.785,-11.573,28.815,34.772
0.257,20.421,1.769,1.769,-11.549,28.831,34.820
0.258,20.499,1.753,1.753,-11.522,28.853,34.889
0.260,20.601,1.740,1.740,-11.493,28.883,34.982
0.261,20.732,1.730,1.730,-11.464,28.923,35.104
0.262,20.897,1.725,1.725,-11.436,28.974,35.258
0.264,21.093,1.724,1.724,-11.410,29.034,35.443
0.265,21.313,1.729,1.729,-11.386,29.101,35.651
0.267,21.545,1.737,1.736,-11.362,29.171,35.871
0.268,21.781,1.746,1.746,-11.338,29.238,36.096
0.270,22.010,1.757,1.757,-11.315,29.300,36.315
0.271,22.223,1.767,1.767,-11.291,29.352,36.520
0.272,22.410,1.776,1.776,-11.265,29.390,36.702
0.274,22.562,1.781,1.781,-11.238,29.411,36.851
0.275,22.675,1.784,1.784,-11.209,29.410,36.960
0.277,22.757,1.783,1.783,-11.179,29.393,37.033
0.278,22.820,1.780,1.781,-11.148,29.363,37.078
0.279,22.874,1.775,1.776,-11.116,29.326,37.102
0.281,22.925,1.769,1.769,-11.084,29.287,37.111
0.282,22.973,1.760,1.760,-11.052,29.250,37.113
0.284,23.015,1.751,1.751,-11.022,29.222,37.114
0.285,23.048,1.742,1.741,-10.993,29.207,37.122
0.287,23.082,1.733,1.732,-10.967,29.209,37.143
0.288,23.131,1.725,1.724,-10.942,29.230,37.180
0.289,23.198,1.721,1.719,-10.915,29.267,37.229
0.291,23.281,1.720,1.719,-10.886,29.317,37.289
0.292,23.378,1.724,1.723,-10.852,29.377,37.356
0.294,23.486,1.734,1.734,-10.811,29.446,37.430
0.295,23.604,1.749,1.751,-10.761,29.519,37.506
0.296,23.729,1.768,1.771,-10.699,29.596,37.583
0.298,23.860,1.789,1.793,-10.624,29.672,37.659
0.299,23.996,1.810,1.815,-10.536,29.746,37.732
0.301,24.137,1.831,1.835,-10.435,29.817,37.801
0.302,24.281,1.849,1.851,-10.326,29.885,37.866
0.304,24.427,1.862,1.861,-10.211,29.950,37.927
0.305,24.571,1.870,1.863,-10.094,30.011,37.985
0.306,24.713,1.873,1.861,-9.976,30.068,38.038
0.308,24.848,1.871,1.854,-9.861,30.120,38.088
0.309,24.976,1.865,1.846,-9.752,30.168,38.133
0.311,25.093,1.853,1.836,-9.651,30.211,38.173
0.312,25.199,1.837,1.828,-9.559,30.249,38.210
0.313,25.294,1.817,1.821,-9.476,30.284,38.242
0.315,25.379,1.793,1.818,-9.403,30.314,38.271
0.316,25.453,1.767,1.817,-9.338,30.342,38.295
0.318,25.518,1.740,1.819,-9.281,30.367,38.316
0.319,25.574,1.713,1.822,-9.234,30.390,38.333
0.321,25.621,1.688,1.826,-9.194,30.412,38.347
0.322,25.660,1.665,1.830,-9.163,30.433,38.358
0.323,25.691,1.647,1.834,-9.141,30.453,38.366
0.325,25.715,1.634,1.836,-9.125,30.470,38.371
0.326,25.730,1.627,1.838,-9.117,30.482,38.373
0.328,25.737,1.626,1.840,-9.116,30.489,38.374
0.329,25.742,1.630,1.840,-9.122,30.488,38.373
0.330,25.758,1.640,1.840,-9.133,30.478,38.370
0.332,25.785,1.657,1.840,-9.150,30.457,38.367
0.333,25.826,1.680,1.840,-9.172,30.423,38.363
0.335,25.879,1.708,1.839,-9.199,30.377,38.359
0.336,25.937,1.738,1.836,-9.225,30.326,38.355
0.338,25.990,1.765,1.831,-9.249,30.279,38.354
0.339,26.027,1.785,1.821,-9.264,30.244,38.356
0.340,26.042,1.792,1.806,-9.267,30.231,38.362
0.342,26.067,1.782,1.783,-9.253,30.248,38.374
0.343,26.137,1.751,1.752,-9.219,30.306,38.393
0.345,26.261,1.695,1.712,-9.159,30.411,38.419
0.346,26.449,1.619,1.665,-9.071,30.574,38.455
0.348,26.697,1.531,1.613,-8.956,30.789,38.499
0.349,26.990,1.440,1.560,-8.822,31.044,38.547
0.350,27.311,1.353,1.508,-8.675,31.326,38.597
0.352,27.646,1.279,1.460,-8.523,31.621,38.646
0.353,27.980,1.226,1.420,-8.373,31.916,38.691
0.355,28.297,1.200,1.390,-8.232,32.197,38.729
0.356,28.583,1.201,1.370,-8.108,32.453,38.756
0.357,28.821,1.222,1.359,-8.007,32.668,38.770
0.359,29.005,1.257,1.357,-7.933,32.836,38.770
0.360,29.140,1.301,1.363,-7.884,32.961,38.758
0.362,29.234,1.347,1.375,-7.854,33.048,38.736
0.363,29.298,1.389,1.395,-7.841,33.104,38.707
0.365,29.342,1.423,1.419,-7.840,33.133,38.674
0.366,29.379,1.446,1.447,-7.846,33.141,38.639
0.367,29.415,1.459,1.475,-7.857,33.135,38.605
0.369,29.450,1.463,1.502,-7.868,33.120,38.576
0.370,29.481,1.461,1.523,-7.874,33.100,38.552
0.372,29.506,1.452,1.536,-7.875,33.080,38.538
0.373,29.527,1.439,1.539,-7.867,33.060,38.536
0.374,29.554,1.422,1.529,-7.848,33.044,38.547
0.376,29.596,1.403,1.506,-7.818,33.033,38.574
0.377,29.661,1.383,1.475,-7.773,33.029,38.620
0.379,29.752,1.363,1.438,-7.712,33.034,38.688
0.380,29.874,1.346,1.401,-7.633,33.051,38.779
0.382,30.030,1.333,1.367,-7.534,33.081,38.896
0.383,30.219,1.324,1.340,-7.417,33.123,39.038
0.384,30.432,1.322,1.324,-7.286,33.175,39.198
0.386,30.660,1.327,1.320,-7.148,33.233,39.371
0.387,30.895,1.337,1.326,-7.008,33.294,39.549
0.389,31.127,1.350,1.339,-6.872,33.353,39.728
0.390,31.348,1.366,1.356,-6.746,33.409,39.900
0.391,31.548,1.382,1.375,-6.635,33.457,40.060
0.393,31.720,1.397,1.394,-6.546,33.494,40.201
0.394,31.856,1.409,1.410,-6.480,33.518,40.319
0.396,31.964,1.417,1.420,-6.436,33.529,40.417
0.397,32.051,1.423,1.427,-6.408,33.529,40.499
0.399,32.125,1.427,1.432,-6.391,33.520,40.570
0.400,32.192,1.430,1.434,-6.379,33.504,40.634
0.401,32.260,1.433,1.437,-6.367,33.481,40.697
0.403,32.332,1.437,1.439,-6.351,33.454,40.762
0.404,32.414,1.444,1.443,-6.326,33.424,40.834
0.406,32.512,1.452,1.450,-6.285,33.394,40.918
0.407,32.625,1.464,1.459,-6.230,33.363,41.011
0.409,32.748,1.478,1.472,-6.164,33.334,41.111
0.410,32.876,1.494,1.487,-6.092,33.305,41.213
0.411,33.003,1.513,1.507,-6.015,33.279,41.311
0.413,33.124,1.534,1.530,-5.939,33.255,41.402
0.414,33.234,1.557,1.558,-5.867,33.235,41.482
0.416,33.326,1.582,1.589,-5.803,33.219,41.546
0.417,33.395,1.608,1.622,-5.750,33.208,41.589
0.418,33.441,1.632,1.654,-5.710,33.201,41.611
0.420,33.470,1.652,1.682,-5.683,33.200,41.619
0.421,33.487,1.668,1.704,-5.665,33.203,41.619
0.423,33.499,1.677,1.717,-5.656,33.210,41.619
0.424,33.513,1.677,1.717,-5.654,33.221,41.628
0.426,33.540,1.668,1.704,-5.657,33.235,41.650
0.427,33.588,1.651,1.680,-5.663,33.252,41.696
0.428,33.666,1.632,1.651,-5.671,33.271,41.770
0.430,33.779,1.612,1.623,-5.678,33.293,41.881
0.431,33.922,1.596,1.600,-5.684,33.315,42.022
0.433,34.088,1.588,1.587,-5.684,33.334,42.187
0.434,34.269,1.592,1.591,-5.679,33.349,42.368
0.435,34.459,1.610,1.615,-5.664,33.357,42.557
0.437,34.649,1.641,1.657,-5.638,33.356,42.745
0.438,34.835,1.681,1.711,-5.598,33.343,42.926
0.440,35.011,1.729,1.772,-5.543,33.316,43.092
0.441,35.177,1.778,1.835,-5.470,33.273,43.234
0.443,35.335,1.828,1.894,-5.381,33.215,43.351
0.444,35.488,1.873,1.943,-5.281,33.149,43.447
0.445,35.638,1.911,1.978,-5.177,33.080,43.528
0.447,35.779,1.942,1.999,-5.073,33.015,43.598
0.448,35.908,1.966,2.010,-4.975,32.959,43.661
0.450,36.021,1.986,2.015,-4.890,32.918,43.723
0.451,36.117,2.003,2.018,-4.822,32.899,43.788
0.452,36.203,2.018,2.022,-4.778,32.908,43.862
0.454,36.297,2.033,2.032,-4.762,32.948,43.946
0.455,36.411,2.048,2.051,-4.770,33.015,44.037
0.457,36.544,2.066,2.080,-4.798,33.104,44.132
0.458,36.690,2.084,2.116,-4.842,33.209,44.224
0.460,36.844,2.104,2.155,-4.898,33.325,44.309
0.461,36.998,2.123,2.194,-4.961,33.445,44.382
0.462,37.147,2.142,2.231,-5.028,33.565,44.438
0.464,37.282,2.161,2.262,-5.094,33.678,44.474
0.465,37.402,2.178,2.284,-5.155,33.780,44.483
0.467,37.507,2.194,2.296,-5.210,33.869,44.471
0.468,37.603,2.209,2.301,-5.261,33.946,44.446
0.470,37.690,2.222,2.300,-5.309,34.013,44.417
0.471,37.768,2.234,2.297,-5.356,34.069,44.391
0.472,37.836,2.244,2.292,-5.403,34.117,44.379
0.474,37.900,2.252,2.289,-5.452,34.157,44.388
0.475,37.972,2.259,2.289,-5.503,34.190,44.427
0.477,38.072,2.265,2.294,-5.559,34.218,44.505
0.478,38.208,2.270,2.303,-5.619,34.242,44.624
0.479,38.376,2.275,2.315,-5.683,34.262,44.778
0.481,38.568,2.281,2.328,-5.750,34.281,44.957
0.482,38.777,2.289,2.342,-5.819,34.300,45.154
0.484,38.995,2.300,2.356,-5.889,34.320,45.360
0.485,39.214,2.314,2.368,-5.958,34.343,45.566
0.487,39.425,2.332,2.378,-6.025,34.371,45.764
0.488,39.622,2.354,2.388,-6.091,34.404,45.946
0.489,39.796,2.377,2.399,-6.152,34.445,46.104
0.491,39.950,2.402,2.411,-6.209,34.491,46.239
0.492,40.083,2.427,2.428,-6.261,34.541,46.352
0.494,40.198,2.452,2.449,-6.305,34.592,46.445
0.495,40.296,2.476,2.477,-6.341,34.643,46.520
0.496,40.377,2.498,2.511,-6.368,34.691,46.579
0.498,40.442,2.518,2.549,-6.384,34.735,46.625
0.499,40.493,2.534,2.588,-6.389,34.772,46.659
0.501,40.531,2.547,2.624,-6.382,34.800,46.683
0.502,40.562,2.556,2.653,-6.363,34.819,46.700
0.504,40.593,2.560,2.673,-6.336,34.828,46.714
0.505,40.626,2.559,2.679,-6.306,34.827,46.728
0.506,40.662,2.551,2.669,-6.277,34.818,46.747
0.508,40.703,2.539,2.645,-6.252,34.800,46.773
0.509,40.752,2.523,2.611,-6.236,34.773,46.810
0.511,40.815,2.505,2.570,-6.232,34.737,46.863
0.512,40.900,2.485,2.527,-6.244,34.693,46.934
0.513,41.010,2.464,2.484,-6.274,34.641,47.026
0.515,41.142,2.444,2.446,-6.317,34.585,47.137
0.516,41.290,2.425,2.416,-6.368,34.527,47.264
0.518,41.450,2.407,2.392,-6.421,34.470,47.404
0.519,41.617,2.389,2.372,-6.468,34.419,47.555
0.521,41.785,2.370,2.355,-6.506,34.375,47.714
0.522,41.954,2.349,2.338,-6.527,34.341,47.877
0.523,42.121,2.324,2.318,-6.526,34.322,48.043
0.525,42.288,2.294,2.293,-6.497,34.320,48.208
0.526,42.461,2.259,2.261,-6.442,34.333,48.371
0.528,42.641,2.219,2.223,-6.363,34.361,48.530
0.529,42.827,2.176,2.181,-6.265,34.399,48.684
0.530,43.019,2.132,2.137,-6.152,34.446,48.832
0.532,43.213,2.090,2.093,-6.027,34.498,48.971
0.533,43.407,2.050,2.051,-5.895,34.554,49.101
0.535,43.597,2.014,2.015,-5.759,34.610,49.221
0.536,43.778,1.986,1.985,-5.622,34.664,49.328
0.538,43.950,1.965,1.963,-5.489,34.715,49.423
0.539,44.113,1.950,1.949,-5.358,34.765,49.506
0.540,44.268,1.943,1.942,-5.231,34.817,49.580
0.542,44.418,1.942,1.941,-5.108,34.873,49.644
0.543,44.563,1.947,1.947,-4.989,34.934,49.701
0.545,44.707,1.959,1.959,-4.875,35.005,49.751
0.546,44.850,1.976,1.976,-4.766,35.086,49.797
0.548,44.997,1.998,1.998,-4.662,35.180,49.839
0.549,45.148,2.021,2.022,-4.563,35.288,49.878
0.550,45.304,2.044,2.045,-4.470,35.406,49.919
0.552,45.461,2.064,2.064,-4.384,35.529,49.965
0.553,45.616,2.078,2.078,-4.303,35.650,50.019
0.555,45.767,2.084,2.084,-4.230,35.763,50.086
0.556,45.913,2.079,2.079,-4.163,35.864,50.169
0.557,46.057,2.063,2.063,-4.104,35.946,50.272
0.559,46.205,2.042,2.042,-4.052,36.002,50.398
0.560,46.368,2.020,2.020,-4.009,36.029,50.552
0.562,46.552,2.001,2.001,-3.971,36.026,50.732
0.563,46.756,1.992,1.992,-3.936,36.000,50.933
0.565,46.978,1.998,1.998,-3.902,35.959,51.147
0.566,47.210,2.022,2.022,-3.864,35.909,51.371
0.567,47.447,2.067,2.068,-3.820,35.856,51.597
0.569,47.681,2.131,2.131,-3.767,35.809,51.821
0.570,47.909,2.208,2.208,-3.701,35.773,52.035
0.572,48.125,2.294,2.294,-3.619,35.755,52.235
0.573,48.332,2.385,2.385,-3.521,35.760,52.417
0.574,48.530,2.477,2.477,-3.411,35.785,52.580
0.576,48.722,2.564,2.564,-3.295,35.824,52.727
0.577,48.904,2.644,2.644,-3.180,35.874,52.860
0.579,49.075,2.716,2.715,-3.070,35.930,52.978
0.580,49.231,2.778,2.778,-2.973,35.988,53.085
0.582,49.367,2.831,2.830,-2.894,36.043,53.181
0.583,49.481,2.873,2.872,-2.838,36.091,53.268
0.584,49.572,2.904,2.903,-2.812,36.128,53.348
0.586,49.649,2.923,2.923,-2.812,36.152,53.421
0.587,49.722,2.930,2.931,-2.835,36.166,53.489
0.589,49.797,2.927,2.929,-2.875,36.169,53.552
0.590,49.876,2.916,2.919,-2.927,36.164,53.611
0.591,49.958,2.901,2.904,-2.984,36.150,53.668
0.593,50.041,2.883,2.886,-3.043,36.128,53.723
0.594,50.123,2.865,2.867,-3.098,36.100,53.778
0.596,50.202,2.850,2.850,-3.143,36.067,53.833
0.597,50.277,2.840,2.837,-3.177,36.029,53.889
0.599,50.352,2.835,2.828,-3.201,35.990,53.948
0.600,50.429,2.833,2.823,-3.218,35.952,54.012
0.601,50.508,2.834,2.821,-3.231,35.917,54.082
0.603,50.592,2.837,2.823,-3.243,35.888,54.159
0.604,50.681,2.839,2.829,-3.254,35.866,54.246
0.606,50.780,2.841,2.838,-3.270,35.855,54.343
0.607,50.891,2.840,2.850,-3.291,35.857,54.452
0.609,51.017,2.837,2.863,-3.319,35.873,54.573
0.610,51.154,2.833,2.877,-3.354,35.903,54.702
0.611,51.297,2.826,2.889,-3.394,35.943,54.834
