"T","Distance","Radius","FreeRadius","X","Y","Z"
0.000,0.000,1.253,1.253,211.970,186.972,169.035
0.001,0.040,1.240,1.240,211.992,187.004,169.045
0.003,0.081,1.227,1.227,212.015,187.037,169.052
0.004,0.122,1.215,1.215,212.039,187.070,169.055
0.005,0.166,1.205,1.205,212.065,187.105,169.049
0.007,0.214,1.196,1.196,212.093,187.141,169.034
0.008,0.271,1.188,1.188,212.125,187.179,169.005
0.010,0.341,1.183,1.183,212.161,187.219,168.961
0.011,0.426,1.181,1.181,212.201,187.261,168.899
0.012,0.531,1.183,1.183,212.246,187.307,168.816
0.014,0.658,1.190,1.190,212.297,187.356,168.710
0.015,0.812,1.204,1.204,212.355,187.408,168.578
0.016,0.989,1.228,1.228,212.418,187.463,168.422
0.018,1.185,1.262,1.262,212.484,187.519,168.246
0.019,1.393,1.309,1.309,212.550,187.572,168.056
0.020,1.607,1.370,1.370,212.614,187.620,167.858
0.022,1.822,1.446,1.446,212.674,187.662,167.655
0.023,2.032,1.532,1.532,212.725,187.694,167.454
0.024,2.231,1.624,1.624,212.767,187.714,167.260
0.026,2.416,1.716,1.716,212.795,187.720,167.078
0.027,2.581,1.804,1.804,212.809,187.708,166.913
0.029,2.727,1.883,1.883,212.804,187.678,166.771
0.030,2.856,1.948,1.948,212.780,187.627,166.655
0.031,2.979,1.994,1.994,212.737,187.556,166.564
0.033,3.103,2.022,2.022,212.681,187.471,166.494
0.034,3.233,2.033,2.033,212.612,187.372,166.444
0.035,3.371,2.031,2.031,212.535,187.264,166.408
0.037,3.514,2.016,2.016,212.453,187.149,166.385
0.038,3.660,1.992,1.992,212.367,187.031,166.371
0.039,3.806,1.960,1.960,212.283,186.913,166.362
0.041,3.947,1.924,1.924,212.202,186.797,166.357
0.042,4.080,1.884,1.884,212.127,186.687,166.351
0.043,4.201,1.843,1.843,212.063,186.585,166.341
0.045,4.308,1.802,1.802,212.010,186.494,166.327
0.046,4.401,1.762,1.762,211.972,186.411,166.308
0.048,4.483,1.725,1.725,211.951,186.335,166.284
0.049,4.558,1.691,1.691,211.948,186.265,166.257
0.050,4.632,1.663,1.663,211.967,186.201,166.225
0.052,4.714,1.641,1.641,212.008,186.139,166.191
0.053,4.811,1.626,1.626,212.075,186.080,166.154
0.054,4.929,1.618,1.618,212.170,186.021,166.114
0.056,5.073,1.616,1.616,212.294,185.962,166.073
0.057,5.246,1.620,1.620,212.451,185.902,166.029
0.058,5.451,1.630,1.630,212.640,185.838,165.984
0.060,5.682,1.645,1.645,212.857,185.772,165.939
0.061,5.935,1.667,1.667,213.096,185.703,165.893
0.063,6.203,1.693,1.693,213.351,185.631,165.849
0.064,6.480,1.724,1.724,213.614,185.557,165.805
0.065,6.759,1.757,1.757,213.879,185.481,165.764
0.067,7.035,1.792,1.792,214.141,185.403,165.726
0.068,7.300,1.829,1.829,214.392,185.323,165.691
0.069,7.550,1.865,1.865,214.626,185.242,165.661
0.071,7.777,1.900,1.900,214.836,185.159,165.635
0.072,7.978,1.933,1.933,215.017,185.075,165.615
0.073,8.149,1.963,1.963,215.165,184.991,165.601
0.075,8.295,1.991,1.991,215.284,184.907,165.592
0.076,8.418,2.016,2.016,215.377,184.826,165.586
0.077,8.522,2.038,2.038,215.445,184.748,165.584
0.079,8.610,2.057,2.057,215.493,184.675,165.583
0.080,8.683,2.072,2.072,215.523,184.608,165.583
0.082,8.745,2.084,2.084,215.537,184.548,165.584
0.083,8.796,2.092,2.092,215.539,184.496,165.584
0.084,8.838,2.098,2.098,215.531,184.455,165.582
0.086,8.871,2.102,2.102,215.516,184.425,165.578
0.087,8.898,2.104,2.104,215.498,184.408,165.570
0.088,8.921,2.106,2.106,215.478,184.400,165.559
0.090,8.944,2.107,2.107,215.461,184.402,165.546
0.091,8.965,2.110,2.110,215.447,184.410,165.531
0.092,8.986,2.114,2.114,215.442,184.422,165.515
0.094,9.009,2.119,2.119,215.446,184.436,165.498
0.095,9.037,2.126,2.126,215.463,184.449,165.480
0.096,9.075,2.134,2.134,215.496,184.461,165.463
0.098,9.130,2.144,2.144,215.548,184.467,165.447
0.099,9.205,2.155,2.155,215.621,184.467,165.433
0.101,9.303,2.167,2.167,215.719,184.458,165.421
0.102,9.426,2.181,2.181,215.840,184.439,165.411
0.103,9.569,2.197,2.197,215.980,184.413,165.403
0.105,9.729,2.215,2.215,216.136,184.380,165.397
0.106,9.899,2.235,2.235,216.302,184.344,165.391
0.107,10.075,2.258,2.258,216.474,184.305,165.387
0.109,10.252,2.285,2.285,216.647,184.266,165.383
0.110,10.426,2.314,2.314,216.817,184.228,165.378
0.111,10.592,2.348,2.348,216.979,184.193,165.374
0.113,10.744,2.385,2.385,217.128,184.164,165.368
0.114,10.878,2.425,2.425,217.260,184.141,165.362
0.115,10.991,2.465,2.465,217.371,184.126,165.354
0.117,11.083,2.505,2.505,217.463,184.119,165.344
0.118,11.157,2.542,2.542,217.536,184.118,165.335
0.120,11.216,2.575,2.575,217.594,184.122,165.325
0.121,11.263,2.603,2.603,217.639,184.128,165.316
0.122,11.299,2.624,2.624,217.674,184.136,165.309
0.124,11.327,2.639,2.639,217.700,184.144,165.303
0.125,11.348,2.648,2.648,217.720,184.151,165.300
0.126,11.365,2.654,2.654,217.736,184.154,165.300
0.128,11.380,2.657,2.657,217.751,184.153,165.304
0.129,11.400,2.658,2.658,217.768,184.146,165.313
0.130,11.427,2.659,2.659,217.787,184.132,165.326
0.132,11.463,2.660,2.660,217.811,184.113,165.346
0.133,11.509,2.664,2.664,217.841,184.089,165.371
0.135,11.566,2.670,2.670,217.879,184.062,165.403
0.136,11.634,2.679,2.679,217.926,184.032,165.442
0.137,11.715,2.693,2.693,217.984,184.002,165.490
0.139,11.810,2.712,2.712,218.054,183.971,165.545
0.140,11.920,2.736,2.736,218.138,183.942,165.610
0.141,12.048,2.768,2.768,218.238,183.914,165.685
0.143,12.194,2.806,2.806,218.355,183.890,165.770
0.144,12.360,2.850,2.850,218.489,183.869,165.865
0.145,12.543,2.901,2.901,218.639,183.853,165.969
0.147,12.739,2.956,2.956,218.800,183.841,166.080
0.148,12.941,3.014,3.014,218.967,183.832,166.193
0.149,13.146,3.075,3.075,219.137,183.826,166.308
0.151,13.348,3.138,3.138,219.305,183.822,166.420
0.152,13.543,3.201,3.201,219.467,183.822,166.528
0.154,13.725,3.264,3.264,219.619,183.823,166.629
0.155,13.890,3.324,3.324,219.756,183.825,166.721
0.156,14.032,3.381,3.381,219.874,183.829,166.800
0.158,14.148,3.431,3.431,219.970,183.834,166.864
0.159,14.234,3.474,3.474,220.041,183.839,166.913
0.160,14.294,3.508,3.508,220.090,183.845,166.947
0.162,14.333,3.531,3.531,220.121,183.851,166.969
0.163,14.353,3.542,3.542,220.137,183.857,166.980
0.164,14.361,3.544,3.544,220.141,183.863,166.983
0.166,14.370,3.538,3.538,220.135,183.869,166.979
0.167,14.386,3.527,3.527,220.124,183.875,166.970
0.168,14.405,3.513,3.513,220.110,183.879,166.957
0.170,14.425,3.500,3.500,220.096,183.884,166.943
0.171,14.442,3.490,3.490,220.086,183.887,166.930
0.173,14.455,3.484,3.484,220.082,183.889,166.918
0.174,14.464,3.483,3.483,220.084,183.890,166.909
0.175,14.474,3.487,3.487,220.092,183.890,166.903
0.177,14.486,3.494,3.494,220.103,183.889,166.898
0.178,14.500,3.504,3.504,220.116,183.886,166.896
0.179,14.516,3.514,3.514,220.132,183.883,166.896
0.181,14.532,3.524,3.524,220.147,183.878,166.898
0.182,14.548,3.533,3.533,220.162,183.873,166.902
0.183,14.564,3.539,3.539,220.175,183.866,166.908
0.185,14.579,3.542,3.542,220.185,183.858,166.916
0.186,14.593,3.542,3.542,220.190,183.849,166.925
0.188,14.609,3.536,3.536,220.191,183.839,166.938
0.189,14.629,3.524,3.524,220.190,183.828,166.955
0.190,14.657,3.506,3.506,220.189,183.818,166.982
0.192,14.696,3.480,3.480,220.190,183.809,167.020
0.193,14.750,3.446,3.446,220.196,183.801,167.072
0.194,14.821,3.404,3.404,220.208,183.796,167.142
0.196,14.914,3.356,3.356,220.230,183.793,167.232
0.197,15.032,3.302,3.302,220.263,183.793,167.345
0.198,15.179,3.245,3.245,220.309,183.797,167.485
0.200,15.360,3.186,3.186,220.372,183.805,167.655
0.201,15.576,3.126,3.126,220.452,183.819,167.855
0.202,15.824,3.066,3.066,220.547,183.837,168.083
0.204,16.095,3.007,3.007,220.655,183.858,168.331
0.205,16.380,2.952,2.952,220.770,183.881,168.591
0.207,16.672,2.901,2.901,220.889,183.906,168.856
0.208,16.962,2.856,2.856,221.008,183.932,169.119
0.209,17.241,2.819,2.819,221.124,183.957,169.372
0.211,17.503,2.790,2.790,221.232,183.981,169.609
0.212,17.738,2.771,2.771,221.329,184.002,169.822
0.213,17.938,2.762,2.762,221.411,184.019,170.004
0.215,18.095,2.763,2.763,221.474,184.032,170.147
0.216,18.206,2.771,2.771,221.517,184.041,170.249
0.217,18.277,2.783,2.783,221.543,184.044,170.315
0.219,18.313,2.796,2.796,221.555,184.042,170.350
0.220,18.325,2.808,2.808,221.556,184.035,170.359
0.221,18.342,2.816,2.816,221.551,184.023,170.350
0.223,18.372,2.818,2.818,221.542,184.006,170.327
0.224,18.411,2.813,2.813,221.533,183.984,170.295
0.226,18.454,2.802,2.802,221.527,183.958,170.262
0.227,18.497,2.785,2.785,221.528,183.926,170.232
0.228,18.540,2.763,2.763,221.539,183.890,170.212
0.230,18.588,2.737,2.737,221.563,183.849,170.206
0.231,18.648,2.709,2.709,221.601,183.803,170.214
0.232,18.721,2.679,2.679,221.650,183.753,170.235
0.234,18.808,2.647,2.647,221.709,183.698,170.267
0.235,18.907,2.615,2.615,221.776,183.638,170.307
0.236,19.016,2.582,2.582,221.851,183.573,170.353
0.238,19.133,2.549,2.549,221.931,183.504,170.404
0.239,19.256,2.517,2.517,222.015,183.430,170.456
0.240,19.385,2.485,2.485,222.101,183.352,170.509
0.242,19.515,2.453,2.453,222.188,183.269,170.561
0.243,19.647,2.424,2.424,222.274,183.181,170.608
0.245,19.779,2.395,2.395,222.359,183.089,170.649
0.246,19.909,2.368,2.368,222.441,182.994,170.685
0.247,20.039,2.341,2.341,222.520,182.896,170.714
0.249,20.166,2.315,2.315,222.597,182.796,170.736
0.250,20.291,2.290,2.290,222.669,182.696,170.750
0.251,20.412,2.264,2.264,222.738,182.596,170.756
0.253,20.531,2.239,2.239,222.803,182.497,170.753
0.254,20.645,2.213,2.213,222.863,182.400,170.742
0.255,20.756,2.188,2.188,222.918,182.307,170.721
0.257,20.863,2.165,2.165,222.968,182.217,170.689
0.258,20.968,2.144,2.144,223.012,182.131,170.648
0.260,21.070,2.126,2.126,223.050,182.050,170.598
0.261,21.171,2.112,2.112,223.083,181.973,170.542
0.262,21.269,2.103,2.103,223.111,181.899,170.484
0.264,21.364,2.099,2.099,223.135,181.827,170.426
0.265,21.455,2.100,2.100,223.155,181.758,170.372
0.266,21.540,2.105,2.105,223.172,181.689,170.325
0.268,21.620,2.111,2.111,223.185,181.620,170.287
0.269,21.694,2.118,2.118,223.195,181.551,170.261
0.270,21.766,2.123,2.123,223.204,181.481,170.251
0.272,21.839,2.125,2.125,223.210,181.409,170.259
0.273,21.918,2.123,2.123,223.215,181.334,170.287
0.274,22.008,2.116,2.116,223.219,181.257,170.333
0.276,22.108,2.103,2.103,223.225,181.178,170.394
0.277,22.219,2.086,2.086,223.233,181.095,170.467
0.279,22.339,2.066,2.066,223.244,181.008,170.550
0.280,22.467,2.041,2.041,223.260,180.919,170.639
0.281,22.602,2.014,2.014,223.282,180.825,170.734
0.283,22.742,1.984,1.984,223.310,180.727,170.830
0.284,22.887,1.952,1.952,223.346,180.625,170.926
0.285,23.035,1.919,1.919,223.392,180.518,171.018
0.287,23.187,1.888,1.888,223.448,180.407,171.104
0.288,23.341,1.860,1.860,223.512,180.291,171.184
0.289,23.497,1.836,1.836,223.583,180.173,171.258
0.291,23.653,1.820,1.820,223.658,180.054,171.326
0.292,23.807,1.812,1.812,223.734,179.935,171.388
0.293,23.958,1.814,1.814,223.809,179.818,171.444
0.295,24.102,1.827,1.827,223.879,179.703,171.496
0.296,24.238,1.848,1.848,223.943,179.593,171.543
0.298,24.363,1.875,1.875,223.998,179.488,171.585
0.299,24.476,1.905,1.905,224.042,179.391,171.623
0.300,24.576,1.936,1.936,224.071,179.302,171.657
0.302,24.663,1.964,1.964,224.085,179.222,171.688
0.303,24.738,1.989,1.989,224.085,179.151,171.714
0.304,24.805,2.008,2.008,224.074,179.090,171.738
0.306,24.865,2.020,2.020,224.055,179.037,171.759
0.307,24.918,2.027,2.027,224.030,178.994,171.778
0.308,24.967,2.030,2.030,224.000,178.959,171.793
0.310,25.009,2.028,2.028,223.970,178.933,171.807
0.311,25.046,2.023,2.023,223.940,178.915,171.819
0.313,25.076,2.015,2.015,223.913,178.906,171.830
0.314,25.099,2.006,2.006,223.892,178.905,171.839
0.315,25.116,1.995,1.995,223.879,178.912,171.847
0.317,25.132,1.983,1.983,223.873,178.925,171.854
0.318,25.149,1.972,1.972,223.874,178.941,171.860
0.319,25.167,1.961,1.961,223.878,178.958,171.865
0.321,25.183,1.953,1.953,223.884,178.972,171.869
0.322,25.195,1.946,1.946,223.891,178.981,171.871
0.323,25.201,1.942,1.942,223.896,178.983,171.871
0.325,25.210,1.942,1.942,223.898,178.974,171.869
0.326,25.234,1.945,1.945,223.896,178.951,171.866
0.327,25.274,1.950,1.950,223.886,178.912,171.861
0.329,25.336,1.957,1.957,223.868,178.853,171.853
0.330,25.419,1.964,1.964,223.840,178.775,171.844
0.332,25.523,1.972,1.972,223.806,178.678,171.834
0.333,25.642,1.980,1.980,223.766,178.566,171.823
0.334,25.773,1.987,1.987,223.724,178.442,171.814
0.336,25.913,1.993,1.993,223.682,178.309,171.806
0.337,26.058,1.997,1.997,223.642,178.170,171.800
0.338,26.204,2.001,2.001,223.607,178.028,171.799
0.340,26.350,2.005,2.005,223.579,177.885,171.802
0.341,26.492,2.008,2.008,223.560,177.745,171.810
0.342,26.627,2.011,2.011,223.553,177.610,171.825
0.344,26.755,2.013,2.013,223.560,177.484,171.847
0.345,26.877,2.016,2.016,223.580,177.368,171.876
0.346,26.993,2.018,2.018,223.611,177.261,171.909
0.348,27.105,2.020,2.020,223.650,177.163,171.946
0.349,27.211,2.022,2.022,223.694,177.074,171.985
0.351,27.311,2.024,2.024,223.741,176.995,172.023
0.352,27.403,2.025,2.025,223.788,176.924,172.059
0.353,27.486,2.025,2.025,223.832,176.862,172.093
0.355,27.558,2.025,2.025,223.872,176.809,172.121
0.356,27.617,2.024,2.024,223.904,176.765,172.142
0.357,27.661,2.023,2.023,223.925,176.729,172.154
0.359,27.690,2.022,2.022,223.935,176.701,172.158
0.360,27.711,2.021,2.021,223.936,176.680,172.155
0.361,27.728,2.022,2.022,223.930,176.666,172.147
0.363,27.745,2.023,2.023,223.921,176.658,172.136
0.364,27.759,2.026,2.026,223.911,176.653,172.127
0.365,27.769,2.030,2.030,223.903,176.653,172.120
0.367,27.773,2.036,2.036,223.901,176.654,172.119
0.368,27.782,2.044,2.044,223.906,176.658,172.126
0.370,27.806,2.053,2.053,223.922,176.662,172.143
0.371,27.849,2.064,2.064,223.952,176.665,172.173
0.372,27.913,2.077,2.077,223.999,176.668,172.218
0.374,27.999,2.091,2.091,224.061,176.667,172.277
0.375,28.102,2.106,2.106,224.137,176.664,172.346
0.376,28.217,2.123,2.123,224.224,176.655,172.421
0.378,28.339,2.139,2.139,224.318,176.639,172.497
0.379,28.466,2.154,2.154,224.419,176.617,172.572
0.380,28.594,2.167,2.167,224.522,176.585,172.641
0.382,28.720,2.176,2.176,224.625,176.543,172.699
0.383,28.842,2.182,2.182,224.726,176.490,172.743
0.385,28.962,2.182,2.182,224.821,176.424,172.770
0.386,29.081,2.177,2.177,224.910,176.344,172.774
0.387,29.205,2.167,2.167,224.988,176.250,172.754
0.389,29.338,2.155,2.155,225.057,176.144,172.712
0.390,29.480,2.140,2.140,225.118,176.031,172.652
0.391,29.630,2.125,2.125,225.172,175.913,172.576
0.393,29.784,2.108,2.108,225.218,175.794,172.489
0.394,29.940,2.093,2.093,225.259,175.678,172.393
0.395,30.094,2.079,2.079,225.295,175.568,172.292
0.397,30.241,2.067,2.067,225.326,175.467,172.189
0.398,30.378,2.056,2.056,225.354,175.380,172.088
0.399,30.501,2.047,2.047,225.379,175.308,171.991
0.401,30.606,2.038,2.038,225.403,175.256,171.903
0.402,30.695,2.030,2.030,225.426,175.222,171.824
0.404,30.774,2.023,2.023,225.451,175.200,171.752
0.405,30.846,2.017,2.017,225.480,175.186,171.688
0.406,30.916,2.011,2.011,225.515,175.174,171.629
0.408,30.987,2.005,2.005,225.559,175.158,171.575
0.409,31.065,2.000,2.000,225.613,175.133,171.525
0.410,31.156,1.994,1.994,225.680,175.094,171.478
0.412,31.266,1.989,1.989,225.762,175.035,171.432
0.413,31.403,1.983,1.983,225.860,174.951,171.387
0.414,31.574,1.977,1.977,225.978,174.836,171.342
0.416,31.781,1.971,1.971,226.116,174.689,171.295
0.417,32.020,1.966,1.966,226.272,174.514,171.249
0.418,32.283,1.964,1.964,226.442,174.318,171.205
0.420,32.563,1.964,1.964,226.623,174.108,171.163
0.421,32.852,1.970,1.970,226.811,173.892,171.126
0.423,33.144,1.981,1.981,227.004,173.675,171.094
0.424,33.430,1.999,1.999,227.198,173.466,171.070
0.425,33.704,2.026,2.026,227.390,173.272,171.053
0.427,33.958,2.059,2.059,227.576,173.098,171.047
0.428,34.188,2.097,2.097,227.753,172.953,171.051
0.429,34.387,2.138,2.138,227.919,172.842,171.068
0.431,34.560,2.179,2.179,228.071,172.767,171.095
0.432,34.711,2.219,2.219,228.212,172.721,171.125
0.433,34.847,2.255,2.255,228.343,172.698,171.155
0.435,34.972,2.285,2.285,228.465,172.694,171.177
0.436,35.087,2.309,2.309,228.580,172.703,171.187
0.438,35.196,2.328,2.328,228.688,172.720,171.178
0.439,35.306,2.344,2.344,228.791,172.738,171.145
0.440,35.424,2.359,2.359,228.891,172.752,171.082
0.442,35.562,2.374,2.374,228.988,172.756,170.985
0.443,35.731,2.391,2.391,229.084,172.746,170.846
0.444,35.939,2.412,2.412,229.179,172.717,170.664
0.446,36.183,2.438,2.438,229.273,172.670,170.443
0.447,36.455,2.470,2.470,229.363,172.610,170.193
0.448,36.749,2.506,2.506,229.447,172.538,169.922
0.450,37.055,2.545,2.545,229.524,172.458,169.637
0.451,37.365,2.586,2.586,229.592,172.373,169.346
0.452,37.671,2.629,2.629,229.648,172.286,169.058
0.454,37.965,2.673,2.673,229.691,172.199,168.780
0.455,38.239,2.717,2.717,229.720,172.116,168.521
0.457,38.484,2.759,2.759,229.731,172.040,168.289
0.458,38.693,2.801,2.801,229.725,171.973,168.091
0.459,38.867,2.840,2.840,229.700,171.917,167.928
0.461,39.013,2.878,2.878,229.660,171.870,167.795
0.462,39.139,2.913,2.913,229.607,171.834,167.687
0.463,39.251,2.945,2.945,229.545,171.806,167.598
0.465,39.355,2.974,2.974,229.476,171.786,167.523
0.466,39.455,3.000,3.000,229.402,171.774,167.457
0.467,39.553,3.023,3.023,229.327,171.770,167.393
0.469,39.652,3.046,3.046,229.253,171.772,167.328
0.470,39.754,3.070,3.070,229.183,171.781,167.254
0.471,39.862,3.097,3.097,229.120,171.795,167.168
0.473,39.980,3.128,3.128,229.065,171.814,167.064
0.474,40.110,3.165,3.165,229.020,171.838,166.946
0.476,40.248,3.209,3.209,228.985,171.868,166.815
0.477,40.394,3.259,3.259,228.958,171.903,166.676
0.478,40.545,3.312,3.312,228.941,171.944,166.532
0.480,40.699,3.363,3.363,228.933,171.990,166.385
0.481,40.853,3.409,3.409,228.934,172.042,166.240
0.482,41.007,3.446,3.446,228.944,172.101,166.098
0.484,41.156,3.471,3.471,228.963,172.165,165.965
0.485,41.301,3.480,3.480,228.991,172.236,165.842
0.486,41.439,3.471,3.471,229.027,172.313,165.733
0.488,41.573,3.448,3.448,229.073,172.396,165.638
0.489,41.706,3.416,3.416,229.128,172.487,165.557
0.490,41.842,3.379,3.379,229.192,172.585,165.488
0.492,41.984,3.341,3.341,229.265,172.690,165.429
0.493,42.133,3.308,3.308,229.348,172.804,165.378
0.495,42.292,3.283,3.283,229.441,172.925,165.335
0.496,42.463,3.271,3.271,229.544,173.056,165.298
0.497,42.645,3.272,3.272,229.656,173.195,165.265
0.499,42.840,3.284,3.284,229.779,173.344,165.234
0.500,43.049,3.304,3.304,229.912,173.503,165.205
0.501,43.272,3.330,3.330,230.055,173.671,165.176
0.503,43.504,3.360,3.360,230.206,173.846,165.147
0.504,43.742,3.392,3.392,230.360,174.024,165.119
0.505,43.980,3.424,3.424,230.515,174.202,165.093
0.507,44.213,3.453,3.453,230.668,174.377,165.068
0.508,44.438,3.480,3.480,230.816,174.545,165.045
0.510,44.648,3.504,3.504,230.954,174.702,165.025
0.511,44.841,3.523,3.523,231.081,174.846,165.008
0.512,45.010,3.539,3.539,231.192,174.973,164.995
0.514,45.152,3.550,3.550,231.285,175.080,164.987
0.515,45.261,3.555,3.555,231.356,175.163,164.983
0.516,45.339,3.555,3.555,231.406,175.222,164.983
0.518,45.389,3.551,3.551,231.438,175.260,164.984
0.519,45.417,3.545,3.545,231.457,175.282,164.984
0.520,45.428,3.541,3.541,231.464,175.289,164.981
0.522,45.437,3.539,3.539,231.465,175.285,164.972
0.523,45.458,3.543,3.543,231.463,175.274,164.956
0.524,45.489,3.555,3.555,231.462,175.259,164.928
0.526,45.533,3.577,3.577,231.466,175.243,164.887
0.527,45.592,3.610,3.610,231.477,175.229,164.832
0.529,45.670,3.651,3.651,231.501,175.221,164.758
0.530,45.770,3.699,3.699,231.539,175.221,164.665
0.531,45.891,3.751,3.751,231.590,175.228,164.555
0.533,46.028,3.806,3.806,231.652,175.242,164.434
0.534,46.178,3.862,3.862,231.721,175.260,164.303
0.535,46.334,3.915,3.915,231.796,175.282,164.168
0.537,46.492,3.966,3.966,231.874,175.306,164.031
0.538,46.648,4.012,4.012,231.952,175.330,163.898
0.539,46.797,4.053,4.053,232.027,175.353,163.773
0.541,46.933,4.090,4.090,232.097,175.374,163.658
0.542,47.052,4.121,4.121,232.160,175.391,163.558
0.543,47.149,4.146,4.146,232.212,175.403,163.476
0.545,47.224,4.165,4.165,232.252,175.409,163.414
0.546,47.278,4.178,4.178,232.283,175.410,163.370
0.548,47.314,4.184,4.184,232.306,175.408,163.341
0.549,47.337,4.185,4.185,232.321,175.402,163.325
0.550,47.350,4.182,4.182,232.329,175.395,163.320
0.552,47.360,4.175,4.175,232.333,175.386,163.322
0.553,47.372,4.168,4.168,232.334,175.377,163.331
