"T","Distance","Radius","FreeRadius","X","Y","Z"
0.000,0.000,1.056,1.056,-79.104,-58.015,-3.582
0.001,0.208,1.086,1.086,-79.237,-57.992,-3.741
0.003,0.415,1.115,1.115,-79.370,-57.970,-3.897
0.004,0.617,1.145,1.145,-79.500,-57.949,-4.050
0.006,0.812,1.175,1.175,-79.628,-57.930,-4.197
0.007,0.999,1.206,1.206,-79.751,-57.914,-4.337
0.008,1.175,1.236,1.236,-79.868,-57.901,-4.468
0.010,1.339,1.267,1.267,-79.980,-57.893,-4.587
0.011,1.488,1.298,1.298,-80.083,-57.889,-4.694
0.013,1.621,1.329,1.329,-80.179,-57.891,-4.787
0.014,1.736,1.360,1.360,-80.264,-57.900,-4.862
0.015,1.831,1.390,1.390,-80.339,-57.915,-4.920
0.017,1.909,1.419,1.419,-80.403,-57.938,-4.958
0.018,1.973,1.446,1.446,-80.456,-57.966,-4.979
0.019,2.027,1.471,1.471,-80.498,-58.000,-4.987
0.021,2.077,1.494,1.494,-80.532,-58.036,-4.986
0.022,2.122,1.514,1.514,-80.557,-58.073,-4.979
0.024,2.164,1.531,1.531,-80.575,-58.110,-4.971
0.025,2.201,1.546,1.546,-80.587,-58.144,-4.964
0.026,2.232,1.559,1.559,-80.593,-58.175,-4.962
0.028,2.258,1.570,1.570,-80.595,-58.199,-4.970
0.029,2.285,1.580,1.580,-80.594,-58.217,-4.991
0.031,2.324,1.587,1.587,-80.589,-58.225,-5.028
0.032,2.382,1.594,1.594,-80.583,-58.224,-5.085
0.033,2.458,1.599,1.599,-80.576,-58.212,-5.160
0.035,2.550,1.603,1.603,-80.568,-58.193,-5.250
0.036,2.653,1.604,1.604,-80.559,-58.169,-5.350
0.038,2.764,1.604,1.604,-80.551,-58.140,-5.456
0.039,2.878,1.601,1.601,-80.542,-58.109,-5.566
0.040,2.992,1.596,1.596,-80.535,-58.078,-5.675
0.042,3.101,1.589,1.589,-80.528,-58.049,-5.781
0.043,3.202,1.581,1.581,-80.523,-58.023,-5.878
0.044,3.290,1.573,1.573,-80.520,-58.001,-5.964
0.046,3.362,1.567,1.567,-80.519,-57.987,-6.034
0.047,3.415,1.564,1.564,-80.520,-57.981,-6.086
0.049,3.449,1.565,1.565,-80.524,-57.983,-6.120
0.050,3.470,1.572,1.572,-80.528,-57.989,-6.140
0.051,3.481,1.586,1.586,-80.532,-57.997,-6.147
0.053,3.490,1.606,1.606,-80.534,-58.005,-6.144
0.054,3.501,1.628,1.628,-80.534,-58.009,-6.134
0.056,3.515,1.649,1.649,-80.530,-58.008,-6.120
0.057,3.535,1.664,1.664,-80.521,-57.999,-6.104
0.058,3.564,1.670,1.670,-80.506,-57.979,-6.090
0.060,3.606,1.665,1.665,-80.484,-57.946,-6.079
0.061,3.663,1.643,1.643,-80.453,-57.897,-6.074
0.063,3.741,1.605,1.605,-80.414,-57.830,-6.078
0.064,3.840,1.554,1.554,-80.367,-57.745,-6.093
0.065,3.955,1.496,1.496,-80.316,-57.644,-6.117
0.067,4.086,1.433,1.433,-80.265,-57.529,-6.151
0.068,4.229,1.370,1.370,-80.217,-57.401,-6.195
0.069,4.384,1.312,1.312,-80.175,-57.263,-6.249
0.071,4.547,1.262,1.262,-80.143,-57.116,-6.314
0.072,4.719,1.223,1.223,-80.123,-56.963,-6.388
0.074,4.899,1.197,1.197,-80.121,-56.804,-6.473
0.075,5.087,1.184,1.184,-80.138,-56.642,-6.568
0.076,5.285,1.184,1.184,-80.179,-56.479,-6.673
0.078,5.495,1.196,1.196,-80.246,-56.317,-6.788
0.079,5.717,1.221,1.221,-80.339,-56.157,-6.911
0.081,5.949,1.260,1.260,-80.452,-56.000,-7.039
0.082,6.186,1.311,1.311,-80.580,-55.849,-7.169
0.083,6.425,1.372,1.372,-80.719,-55.704,-7.298
0.085,6.660,1.437,1.437,-80.864,-55.566,-7.421
0.086,6.886,1.503,1.503,-81.010,-55.438,-7.536
0.088,7.098,1.563,1.563,-81.153,-55.320,-7.640
0.089,7.290,1.614,1.614,-81.287,-55.214,-7.729
0.090,7.458,1.651,1.651,-81.408,-55.122,-7.800
0.092,7.596,1.669,1.669,-81.511,-55.044,-7.850
0.093,7.701,1.669,1.669,-81.591,-54.983,-7.875
0.094,7.773,1.654,1.654,-81.647,-54.937,-7.878
0.096,7.823,1.628,1.628,-81.683,-54.905,-7.863
0.097,7.860,1.598,1.598,-81.701,-54.887,-7.837
0.099,7.892,1.565,1.565,-81.704,-54.880,-7.805
0.100,7.925,1.536,1.536,-81.694,-54.883,-7.774
0.101,7.959,1.513,1.513,-81.675,-54.895,-7.749
0.103,7.993,1.500,1.500,-81.650,-54.913,-7.735
0.104,8.031,1.493,1.493,-81.620,-54.937,-7.740
0.106,8.081,1.488,1.488,-81.590,-54.965,-7.768
0.107,8.152,1.483,1.483,-81.561,-54.996,-7.825
0.108,8.253,1.474,1.474,-81.537,-55.028,-7.917
0.110,8.385,1.457,1.457,-81.519,-55.059,-8.045
0.111,8.546,1.429,1.429,-81.506,-55.091,-8.202
0.113,8.730,1.388,1.388,-81.497,-55.123,-8.383
0.114,8.931,1.336,1.336,-81.490,-55.155,-8.581
0.115,9.144,1.278,1.278,-81.487,-55.187,-8.791
0.117,9.362,1.218,1.218,-81.484,-55.218,-9.007
0.118,9.579,1.159,1.159,-81.482,-55.249,-9.222
0.119,9.791,1.105,1.105,-81.480,-55.280,-9.432
0.121,9.990,1.061,1.061,-81.476,-55.311,-9.628
0.122,10.171,1.029,1.029,-81.471,-55.341,-9.807
0.124,10.328,1.011,1.011,-81.462,-55.371,-9.961
0.125,10.460,1.003,1.003,-81.450,-55.399,-10.089
0.126,10.570,1.005,1.005,-81.435,-55.427,-10.194
0.128,10.661,1.013,1.013,-81.418,-55.454,-10.280
0.129,10.737,1.026,1.026,-81.398,-55.479,-10.349
0.131,10.802,1.043,1.043,-81.377,-55.502,-10.405
0.132,10.858,1.060,1.060,-81.354,-55.523,-10.452
0.133,10.909,1.077,1.077,-81.330,-55.542,-10.493
0.135,10.957,1.095,1.095,-81.306,-55.557,-10.532
0.136,11.006,1.113,1.113,-81.281,-55.570,-10.572
0.138,11.057,1.132,1.132,-81.257,-55.579,-10.617
0.139,11.115,1.152,1.152,-81.233,-55.584,-10.669
0.140,11.181,1.173,1.173,-81.211,-55.586,-10.731
0.142,11.254,1.195,1.195,-81.189,-55.585,-10.800
0.143,11.331,1.219,1.219,-81.168,-55.581,-10.875
0.144,11.412,1.242,1.242,-81.149,-55.576,-10.953
0.146,11.493,1.265,1.265,-81.130,-55.569,-11.032
0.147,11.573,1.284,1.284,-81.113,-55.562,-11.110
0.149,11.650,1.300,1.300,-81.097,-55.555,-11.184
0.150,11.721,1.311,1.311,-81.082,-55.549,-11.253
0.151,11.784,1.315,1.315,-81.068,-55.544,-11.315
0.153,11.837,1.312,1.312,-81.056,-55.541,-11.366
0.154,11.878,1.303,1.303,-81.045,-55.541,-11.406
0.156,11.906,1.289,1.289,-81.036,-55.544,-11.432
0.157,11.924,1.273,1.273,-81.028,-55.549,-11.448
0.158,11.935,1.256,1.256,-81.021,-55.556,-11.454
0.160,11.945,1.239,1.239,-81.016,-55.563,-11.452
0.161,11.956,1.226,1.226,-81.011,-55.571,-11.446
0.163,11.969,1.217,1.217,-81.008,-55.579,-11.436
0.164,11.982,1.212,1.212,-81.005,-55.585,-11.426
0.165,11.993,1.210,1.210,-81.002,-55.589,-11.415
0.167,12.001,1.211,1.211,-81.001,-55.591,-11.408
0.168,12.004,1.213,1.213,-80.999,-55.590,-11.406
0.169,12.011,1.215,1.215,-80.998,-55.585,-11.410
0.171,12.026,1.217,1.217,-80.997,-55.575,-11.422
0.172,12.051,1.216,1.216,-80.996,-55.560,-11.441
0.174,12.083,1.213,1.213,-80.995,-55.541,-11.466
0.175,12.122,1.209,1.209,-80.993,-55.516,-11.497
0.176,12.167,1.204,1.204,-80.990,-55.486,-11.531
0.178,12.219,1.200,1.200,-80.986,-55.450,-11.567
0.179,12.276,1.199,1.199,-80.980,-55.408,-11.605
0.181,12.337,1.200,1.200,-80.972,-55.360,-11.643
0.182,12.404,1.205,1.205,-80.962,-55.305,-11.681
0.183,12.476,1.214,1.214,-80.949,-55.245,-11.716
0.185,12.552,1.227,1.227,-80.934,-55.177,-11.748
0.186,12.633,1.242,1.242,-80.916,-55.103,-11.777
0.188,12.719,1.257,1.257,-80.895,-55.024,-11.804
0.189,12.809,1.272,1.272,-80.871,-54.943,-11.831
0.190,12.900,1.284,1.284,-80.844,-54.860,-11.860
0.192,12.992,1.293,1.293,-80.813,-54.780,-11.893
0.193,13.085,1.298,1.298,-80.780,-54.702,-11.933
0.194,13.179,1.297,1.297,-80.744,-54.631,-11.981
0.196,13.275,1.292,1.292,-80.704,-54.567,-12.040
0.197,13.374,1.282,1.282,-80.661,-54.513,-12.112
0.199,13.481,1.268,1.268,-80.616,-54.470,-12.198
0.200,13.598,1.251,1.251,-80.567,-54.442,-12.301
0.201,13.730,1.230,1.230,-80.515,-54.428,-12.422
0.203,13.877,1.205,1.205,-80.461,-54.429,-12.558
0.204,14.035,1.179,1.179,-80.406,-54.440,-12.706
0.206,14.201,1.152,1.152,-80.352,-54.460,-12.862
0.207,14.372,1.128,1.128,-80.300,-54.486,-13.022
0.208,14.543,1.107,1.107,-80.251,-54.516,-13.184
0.210,14.711,1.093,1.093,-80.206,-54.548,-13.342
0.211,14.871,1.087,1.087,-80.166,-54.578,-13.495
0.213,15.020,1.091,1.091,-80.134,-54.606,-13.637
0.214,15.153,1.105,1.105,-80.109,-54.627,-13.766
0.215,15.267,1.128,1.128,-80.093,-54.641,-13.878
0.217,15.359,1.155,1.155,-80.088,-54.644,-13.970
0.218,15.434,1.185,1.185,-80.091,-54.637,-14.045
0.219,15.498,1.214,1.214,-80.103,-54.621,-14.105
0.221,15.557,1.239,1.239,-80.122,-54.595,-14.155
0.222,15.617,1.257,1.257,-80.147,-54.562,-14.198
0.224,15.682,1.267,1.267,-80.176,-54.520,-14.239
0.225,15.753,1.269,1.269,-80.208,-54.472,-14.279
0.226,15.832,1.267,1.267,-80.243,-54.417,-14.324
0.228,15.919,1.264,1.264,-80.278,-54.356,-14.377
0.229,16.018,1.262,1.262,-80.313,-54.290,-14.441
0.231,16.129,1.263,1.263,-80.346,-54.220,-14.519
0.232,16.254,1.271,1.271,-80.377,-54.146,-14.616
0.233,16.394,1.288,1.288,-80.403,-54.068,-14.729
0.235,16.544,1.313,1.313,-80.424,-53.989,-14.855
0.236,16.703,1.346,1.346,-80.438,-53.909,-14.991
0.238,16.866,1.385,1.385,-80.445,-53.829,-15.134
0.239,17.032,1.430,1.430,-80.442,-53.750,-15.279
0.240,17.197,1.477,1.477,-80.428,-53.673,-15.425
0.242,17.359,1.528,1.528,-80.403,-53.600,-15.567
0.243,17.516,1.579,1.579,-80.364,-53.531,-15.702
0.244,17.666,1.630,1.630,-80.311,-53.467,-15.828
0.246,17.810,1.681,1.681,-80.242,-53.409,-15.940
0.247,17.948,1.731,1.731,-80.157,-53.359,-16.036
0.249,18.083,1.781,1.781,-80.058,-53.316,-16.118
0.250,18.218,1.830,1.830,-79.950,-53.279,-16.188
0.251,18.351,1.877,1.877,-79.837,-53.246,-16.251
0.253,18.481,1.923,1.923,-79.724,-53.218,-16.310
0.254,18.606,1.967,1.967,-79.617,-53.194,-16.369
0.256,18.724,2.011,2.011,-79.518,-53.172,-16.431
0.257,18.835,2.057,2.057,-79.434,-53.151,-16.500
0.258,18.940,2.106,2.106,-79.368,-53.131,-16.580
0.260,19.045,2.160,2.160,-79.326,-53.111,-16.673
0.261,19.158,2.220,2.220,-79.312,-53.090,-16.784
0.263,19.293,2.289,2.289,-79.329,-53.066,-16.915
0.264,19.453,2.368,2.368,-79.377,-53.041,-17.066
0.265,19.634,2.453,2.453,-79.450,-53.014,-17.230
0.267,19.832,2.542,2.542,-79.542,-52.986,-17.403
0.268,20.041,2.632,2.632,-79.649,-52.958,-17.580
0.269,20.254,2.720,2.720,-79.765,-52.929,-17.756
0.271,20.464,2.802,2.802,-79.884,-52.900,-17.927
0.272,20.664,2.875,2.875,-80.001,-52.872,-18.086
0.274,20.847,2.936,2.936,-80.111,-52.845,-18.230
0.275,21.007,2.985,2.985,-80.209,-52.820,-18.354
0.276,21.136,3.024,3.024,-80.289,-52.797,-18.452
0.278,21.227,3.053,3.053,-80.346,-52.776,-18.520
0.279,21.282,3.075,3.075,-80.381,-52.758,-18.560
0.281,21.310,3.091,3.091,-80.396,-52.744,-18.578
0.282,21.320,3.103,3.103,-80.396,-52.734,-18.580
0.283,21.334,3.112,3.112,-80.384,-52.729,-18.573
0.285,21.356,3.121,3.121,-80.365,-52.730,-18.564
0.286,21.380,3.132,3.132,-80.342,-52.737,-18.558
0.288,21.408,3.147,3.147,-80.319,-52.752,-18.563
0.289,21.444,3.168,3.168,-80.300,-52.773,-18.583
0.290,21.498,3.199,3.199,-80.288,-52.804,-18.627
0.292,21.581,3.241,3.241,-80.287,-52.843,-18.700
0.293,21.701,3.296,3.296,-80.301,-52.892,-18.809
0.294,21.859,3.367,3.367,-80.330,-52.950,-18.952
0.296,22.048,3.451,3.451,-80.372,-53.015,-19.125
0.297,22.262,3.544,3.544,-80.424,-53.087,-19.320
0.299,22.494,3.642,3.642,-80.483,-53.163,-19.531
0.300,22.737,3.743,3.743,-80.546,-53.242,-19.752
0.301,22.984,3.844,3.844,-80.610,-53.322,-19.976
0.303,23.228,3.940,3.940,-80.674,-53.403,-20.198
0.304,23.462,4.029,4.029,-80.733,-53.482,-20.410
0.306,23.679,4.111,4.111,-80.785,-53.557,-20.607
0.307,23.872,4.185,4.185,-80.827,-53.628,-20.781
0.308,24.035,4.251,4.251,-80.858,-53.693,-20.928
0.310,24.167,4.311,4.311,-80.875,-53.750,-21.045
0.311,24.271,4.364,4.364,-80.879,-53.802,-21.135
0.313,24.352,4.411,4.411,-80.872,-53.847,-21.203
0.314,24.417,4.452,4.452,-80.855,-53.887,-21.251
0.315,24.471,4.487,4.487,-80.829,-53.921,-21.283
0.317,24.521,4.516,4.516,-80.794,-53.951,-21.304
0.318,24.571,4.539,4.539,-80.752,-53.976,-21.315
0.319,24.624,4.556,4.556,-80.705,-53.998,-21.322
0.321,24.681,4.568,4.568,-80.652,-54.016,-21.328
0.322,24.740,4.574,4.574,-80.595,-54.032,-21.336
0.324,24.803,4.573,4.573,-80.535,-54.044,-21.350
0.325,24.869,4.568,4.568,-80.474,-54.055,-21.372
0.326,24.937,4.558,4.558,-80.412,-54.064,-21.401
0.328,25.007,4.546,4.546,-80.353,-54.073,-21.436
0.329,25.078,4.531,4.531,-80.297,-54.080,-21.478
0.331,25.147,4.516,4.516,-80.246,-54.088,-21.525
0.332,25.216,4.502,4.502,-80.202,-54.096,-21.577
0.333,25.283,4.489,4.489,-80.167,-54.105,-21.634
0.335,25.348,4.480,4.480,-80.143,-54.116,-21.694
0.336,25.413,4.474,4.474,-80.130,-54.128,-21.756
0.338,25.481,4.471,4.471,-80.132,-54.144,-21.822
0.339,25.552,4.472,4.472,-80.149,-54.162,-21.889
0.340,25.631,4.476,4.476,-80.182,-54.183,-21.957
0.342,25.719,4.483,4.483,-80.228,-54.207,-22.028
0.343,25.814,4.495,4.495,-80.284,-54.233,-22.101
0.344,25.915,4.510,4.510,-80.347,-54.260,-22.176
0.346,26.022,4.527,4.527,-80.414,-54.287,-22.253
0.347,26.131,4.545,4.545,-80.481,-54.315,-22.334
0.349,26.241,4.563,4.563,-80.547,-54.341,-22.419
0.350,26.351,4.577,4.577,-80.607,-54.367,-22.507
0.351,26.459,4.587,4.587,-80.660,-54.390,-22.600
0.353,26.567,4.590,4.590,-80.701,-54.410,-22.696
0.354,26.673,4.585,4.585,-80.728,-54.427,-22.798
0.356,26.781,4.573,4.573,-80.739,-54.441,-22.904
0.357,26.892,4.556,4.556,-80.735,-54.450,-23.015
0.358,27.009,4.537,4.537,-80.717,-54.457,-23.130
0.360,27.130,4.520,4.520,-80.687,-54.460,-23.248
0.361,27.258,4.507,4.507,-80.644,-54.461,-23.368
0.363,27.391,4.502,4.502,-80.591,-54.459,-23.490
0.364,27.530,4.507,4.507,-80.528,-54.454,-23.614
0.365,27.674,4.525,4.525,-80.457,-54.448,-23.739
0.367,27.821,4.553,4.553,-80.379,-54.440,-23.864
0.368,27.972,4.588,4.588,-80.294,-54.431,-23.988
0.369,28.126,4.629,4.629,-80.205,-54.421,-24.112
0.371,28.280,4.673,4.673,-80.111,-54.409,-24.234
0.372,28.435,4.717,4.717,-80.013,-54.396,-24.354
0.374,28.591,4.758,4.758,-79.910,-54.381,-24.470
0.375,28.747,4.796,4.796,-79.802,-54.365,-24.581
0.376,28.902,4.829,4.829,-79.690,-54.345,-24.687
0.378,29.057,4.859,4.859,-79.573,-54.323,-24.786
0.379,29.211,4.887,4.887,-79.451,-54.298,-24.877
0.381,29.366,4.915,4.915,-79.324,-54.269,-24.959
0.382,29.521,4.943,4.943,-79.191,-54.236,-25.032
0.383,29.676,4.972,4.972,-79.053,-54.199,-25.093
0.385,29.834,5.003,5.003,-78.909,-54.157,-25.143
0.386,29.995,5.037,5.037,-78.759,-54.111,-25.180
0.388,30.158,5.072,5.072,-78.606,-54.061,-25.207
0.389,30.323,5.108,5.108,-78.451,-54.009,-25.225
0.390,30.487,5.144,5.144,-78.296,-53.958,-25.236
0.392,30.648,5.179,5.179,-78.142,-53.908,-25.243
0.393,30.805,5.212,5.212,-77.993,-53.861,-25.247
0.394,30.956,5.243,5.243,-77.848,-53.818,-25.251
0.396,31.097,5.272,5.272,-77.712,-53.782,-25.257
0.397,31.228,5.297,5.297,-77.584,-53.754,-25.266
0.399,31.347,5.320,5.320,-77.468,-53.735,-25.280
0.400,31.453,5.339,5.339,-77.364,-53.727,-25.303
0.401,31.548,5.357,5.357,-77.275,-53.731,-25.334
0.403,31.634,5.371,5.371,-77.199,-53.746,-25.374
0.404,31.716,5.384,5.384,-77.135,-53.769,-25.419
0.406,31.795,5.394,5.394,-77.082,-53.798,-25.469
0.407,31.872,5.401,5.401,-77.037,-53.832,-25.522
0.408,31.946,5.407,5.407,-76.999,-53.867,-25.575
0.410,32.017,5.412,5.412,-76.967,-53.903,-25.627
0.411,32.083,5.416,5.416,-76.939,-53.936,-25.677
0.413,32.142,5.419,5.419,-76.914,-53.965,-25.721
0.414,32.192,5.422,5.422,-76.890,-53.987,-25.759
0.415,32.233,5.425,5.425,-76.865,-54.001,-25.789
0.417,32.266,5.429,5.429,-76.840,-54.005,-25.810
0.418,32.296,5.431,5.431,-76.813,-54.001,-25.822
0.419,32.325,5.434,5.434,-76.787,-53.990,-25.828
0.421,32.353,5.436,5.436,-76.762,-53.977,-25.829
0.422,32.379,5.437,5.437,-76.741,-53.962,-25.828
0.424,32.399,5.438,5.438,-76.724,-53.950,-25.827
0.425,32.413,5.437,5.437,-76.713,-53.942,-25.828
0.426,32.419,5.435,5.435,-76.710,-53.940,-25.832
0.428,32.433,5.430,5.430,-76.714,-53.949,-25.842
0.429,32.463,5.424,5.424,-76.729,-53.969,-25.859
0.431,32.515,5.414,5.414,-76.755,-54.004,-25.887
0.432,32.589,5.400,5.400,-76.793,-54.056,-25.926
0.433,32.686,5.383,5.383,-76.842,-54.123,-25.975
0.435,32.801,5.360,5.360,-76.900,-54.203,-26.033
0.436,32.930,5.334,5.334,-76.965,-54.293,-26.099
0.438,33.070,5.304,5.304,-77.035,-54.391,-26.170
0.439,33.217,5.272,5.272,-77.108,-54.495,-26.245
0.440,33.369,5.240,5.240,-77.182,-54.602,-26.322
0.442,33.520,5.209,5.209,-77.256,-54.709,-26.399
0.443,33.667,5.181,5.181,-77.326,-54.813,-26.476
0.444,33.808,5.157,5.157,-77.392,-54.914,-26.549
0.446,33.938,5.138,5.138,-77.451,-55.007,-26.618
0.447,34.054,5.124,5.124,-77.502,-55.090,-26.681
0.449,34.155,5.114,5.114,-77.544,-55.164,-26.736
0.450,34.243,5.107,5.107,-77.579,-55.227,-26.786
0.451,34.318,5.102,5.102,-77.608,-55.281,-26.828
0.453,34.380,5.099,5.099,-77.632,-55.326,-26.864
0.454,34.430,5.096,5.096,-77.652,-55.362,-26.893
0.456,34.469,5.093,5.093,-77.669,-55.389,-26.915
0.457,34.498,5.090,5.090,-77.685,-55.408,-26.930
0.458,34.518,5.087,5.087,-77.700,-55.419,-26.938
0.460,34.534,5.085,5.085,-77.716,-55.421,-26.940
0.461,34.553,5.084,5.084,-77.733,-55.416,-26.934
0.463,34.579,5.084,5.084,-77.753,-55.404,-26.922
0.464,34.612,5.085,5.085,-77.774,-55.386,-26.904
0.465,34.648,5.089,5.089,-77.795,-55.366,-26.883
0.467,34.683,5.094,5.094,-77.814,-55.345,-26.862
0.468,34.714,5.100,5.100,-77.829,-55.326,-26.843
0.469,34.736,5.104,5.104,-77.836,-55.312,-26.828
0.471,34.746,5.105,5.105,-77.836,-55.305,-26.820
0.472,34.758,5.101,5.101,-77.825,-55.308,-26.822
0.474,34.789,5.091,5.091,-77.801,-55.323,-26.835
0.475,34.845,5.074,5.074,-77.762,-55.353,-26.862
0.476,34.930,5.048,5.048,-77.707,-55.401,-26.905
0.478,35.047,5.015,5.015,-77.633,-55.468,-26.967
0.479,35.197,4.974,4.974,-77.541,-55.555,-27.047
0.481,35.375,4.928,4.928,-77.433,-55.660,-27.143
0.482,35.577,4.877,4.877,-77.312,-55.780,-27.251
0.483,35.798,4.822,4.822,-77.181,-55.913,-27.370
0.485,36.036,4.764,4.764,-77.040,-56.057,-27.495
0.486,36.284,4.704,4.704,-76.894,-56.209,-27.626
0.488,36.540,4.643,4.643,-76.744,-56.369,-27.758
0.489,36.799,4.584,4.584,-76.593,-56.533,-27.890
0.490,37.057,4.527,4.527,-76.442,-56.700,-28.018
0.492,37.311,4.475,4.475,-76.296,-56.866,-28.139
0.493,37.555,4.429,4.429,-76.155,-57.031,-28.252
0.494,37.788,4.390,4.390,-76.021,-57.192,-28.355
0.496,38.011,4.361,4.361,-75.895,-57.349,-28.449
0.497,38.221,4.341,4.341,-75.775,-57.500,-28.533
0.499,38.418,4.329,4.329,-75.664,-57.645,-28.608
0.500,38.603,4.323,4.323,-75.560,-57.782,-28.674
0.501,38.773,4.324,4.324,-75.464,-57.911,-28.732
0.503,38.930,4.329,4.329,-75.376,-58.030,-28.782
0.504,39.071,4.338,4.338,-75.296,-58.139,-28.824
0.506,39.197,4.349,4.349,-75.224,-58.236,-28.859
0.507,39.306,4.361,4.361,-75.160,-58.320,-28.887
0.508,39.398,4.373,4.373,-75.106,-58.391,-28.908
0.510,39.474,4.385,4.385,-75.059,-58.449,-28.923
0.511,39.537,4.395,4.395,-75.020,-58.497,-28.932
0.513,39.589,4.402,4.402,-74.987,-58.537,-28.939
0.514,39.633,4.406,4.406,-74.959,-58.571,-28.942
0.515,39.673,4.405,4.405,-74.935,-58.603,-28.944
0.517,39.710,4.398,4.398,-74.915,-58.634,-28.946
0.518,39.747,4.387,4.387,-74.898,-58.667,-28.948
0.519,39.788,4.374,4.374,-74.882,-58.705,-28.953
0.521,39.837,4.359,4.359,-74.866,-58.749,-28.961
0.522,39.894,4.345,4.345,-74.850,-58.804,-28.973
0.524,39.965,4.332,4.332,-74.832,-58.870,-28.990
0.525,40.049,4.322,4.322,-74.813,-58.949,-29.013
0.526,40.143,4.316,4.316,-74.792,-59.036,-29.040
0.528,40.244,4.314,4.314,-74.769,-59.130,-29.069
0.529,40.347,4.314,4.314,-74.747,-59.226,-29.100
0.531,40.450,4.315,4.315,-74.724,-59.322,-29.130
0.532,40.549,4.315,4.315,-74.701,-59.414,-29.158
0.533,40.640,4.312,4.312,-74.678,-59.499,-29.182
0.535,40.721,4.306,4.306,-74.656,-59.573,-29.202
0.536,40.786,4.294,4.294,-74.636,-59.634,-29.215
0.538,40.835,4.278,4.278,-74.617,-59.679,-29.220
0.539,40.865,4.259,4.259,-74.600,-59.703,-29.215
0.540,40.886,4.240,4.240,-74.585,-59.707,-29.201
0.542,40.914,4.222,4.222,-74.571,-59.694,-29.180
0.543,40.952,4.207,4.207,-74.557,-59.669,-29.156
0.544,40.997,4.199,4.199,-74.542,-59.634,-29.131
0.546,41.046,4.198,4.198,-74.524,-59.595,-29.109
0.547,41.094,4.205,4.205,-74.503,-59.555,-29.092
0.549,41.140,4.218,4.217,-74.478,-59.518,-29.083
0.550,41.182,4.232,4.232,-74.447,-59.488,-29.087
0.551,41.227,4.247,4.246,-74.410,-59.470,-29.104
0.553,41.285,4.257,4.257,-74.365,-59.468,-29.140
0.554,41.364,4.260,4.260,-74.312,-59.485,-29.196
0.556,41.471,4.253,4.253,-74.249,-59.523,-29.274
0.557,41.606,4.233,4.233,-74.176,-59.583,-29.371
0.558,41.767,4.202,4.202,-74.093,-59.662,-29.483
0.560,41.951,4.160,4.161,-74.001,-59.759,-29.609
0.561,42.155,4.110,4.111,-73.898,-59.874,-29.743
0.563,42.377,4.053,4.054,-73.785,-60.004,-29.884
0.564,42.615,3.990,3.991,-73.662,-60.148,-30.028
0.565,42.867,3.924,3.924,-73.528,-60.305,-30.171
0.567,43.130,3.854,3.854,-73.383,-60.474,-30.311
0.568,43.402,3.784,3.784,-73.227,-60.654,-30.444
