"T","Distance","Radius","FreeRadius","X","Y","Z"
0.000,0.000,1.056,1.056,-79.104,-58.015,-3.582
0.001,0.263,1.105,1.105,-79.102,-58.270,-3.513
0.003,0.523,1.154,1.154,-79.099,-58.519,-3.441
0.004,0.775,1.203,1.203,-79.094,-58.759,-3.363
0.005,1.017,1.252,1.252,-79.085,-58.985,-3.277
0.007,1.246,1.300,1.300,-79.072,-59.192,-3.180
0.008,1.461,1.349,1.349,-79.053,-59.375,-3.070
0.009,1.663,1.398,1.398,-79.026,-59.531,-2.943
0.010,1.857,1.447,1.447,-78.992,-59.653,-2.797
0.012,2.049,1.495,1.495,-78.949,-59.738,-2.630
0.013,2.252,1.542,1.542,-78.895,-59.782,-2.440
0.014,2.468,1.588,1.588,-78.834,-59.790,-2.232
0.016,2.696,1.632,1.632,-78.767,-59.768,-2.016
0.017,2.929,1.673,1.673,-78.697,-59.724,-1.798
0.018,3.161,1.711,1.711,-78.626,-59.663,-1.586
0.020,3.382,1.745,1.745,-78.557,-59.591,-1.388
0.021,3.584,1.774,1.774,-78.493,-59.517,-1.211
0.022,3.758,1.799,1.799,-78.436,-59.445,-1.064
0.023,3.894,1.820,1.820,-78.389,-59.382,-0.953
0.025,3.986,1.837,1.837,-78.352,-59.333,-0.884
0.026,4.043,1.851,1.851,-78.326,-59.296,-0.849
0.027,4.081,1.863,1.863,-78.308,-59.265,-0.838
0.029,4.112,1.872,1.872,-78.296,-59.236,-0.841
0.030,4.146,1.881,1.881,-78.289,-59.203,-0.846
0.031,4.187,1.888,1.888,-78.284,-59.162,-0.842
0.033,4.246,1.897,1.897,-78.279,-59.108,-0.821
0.034,4.334,1.910,1.910,-78.273,-59.037,-0.770
0.035,4.465,1.929,1.929,-78.263,-58.942,-0.679
0.037,4.649,1.956,1.956,-78.249,-58.822,-0.541
0.038,4.876,1.995,1.995,-78.231,-58.681,-0.363
0.039,5.135,2.047,2.047,-78.211,-58.525,-0.158
0.040,5.412,2.115,2.115,-78.192,-58.361,0.064
0.042,5.693,2.200,2.200,-78.174,-58.196,0.291
0.043,5.965,2.297,2.297,-78.161,-58.036,0.512
0.044,6.216,2.401,2.401,-78.154,-57.889,0.714
0.046,6.431,2.506,2.506,-78.154,-57.760,0.886
0.047,6.598,2.605,2.605,-78.164,-57.657,1.017
0.048,6.709,2.693,2.693,-78.185,-57.585,1.099
0.050,6.774,2.764,2.764,-78.213,-57.539,1.136
0.051,6.812,2.813,2.813,-78.242,-57.514,1.140
0.052,6.845,2.837,2.837,-78.267,-57.505,1.120
0.054,6.882,2.842,2.842,-78.282,-57.506,1.088
0.055,6.918,2.831,2.831,-78.283,-57.510,1.052
0.056,6.952,2.811,2.811,-78.265,-57.512,1.023
0.057,6.998,2.787,2.787,-78.221,-57.507,1.011
0.059,7.077,2.763,2.763,-78.146,-57.488,1.027
0.060,7.202,2.745,2.745,-78.038,-57.451,1.077
0.061,7.369,2.738,2.738,-77.901,-57.399,1.159
0.063,7.567,2.742,2.742,-77.745,-57.337,1.263
0.064,7.783,2.756,2.756,-77.578,-57.270,1.383
0.065,8.005,2.775,2.775,-77.409,-57.204,1.511
0.067,8.221,2.798,2.798,-77.245,-57.143,1.638
0.068,8.419,2.821,2.821,-77.096,-57.093,1.758
0.069,8.585,2.841,2.841,-76.970,-57.059,1.862
0.070,8.710,2.857,2.857,-76.876,-57.045,1.942
0.072,8.787,2.865,2.865,-76.820,-57.055,1.994
0.073,8.831,2.867,2.867,-76.797,-57.084,2.019
0.074,8.869,2.863,2.863,-76.799,-57.121,2.023
0.076,8.912,2.857,2.857,-76.818,-57.159,2.014
0.077,8.955,2.850,2.850,-76.844,-57.188,1.995
0.078,8.992,2.844,2.844,-76.872,-57.199,1.974
0.080,9.022,2.841,2.841,-76.891,-57.184,1.956
0.081,9.073,2.843,2.843,-76.893,-57.133,1.947
0.082,9.171,2.851,2.851,-76.871,-57.038,1.953
0.084,9.327,2.865,2.865,-76.819,-56.893,1.978
0.085,9.537,2.883,2.883,-76.738,-56.705,2.020
0.086,9.785,2.904,2.904,-76.637,-56.484,2.076
0.087,10.060,2.926,2.926,-76.521,-56.244,2.140
0.089,10.346,2.949,2.949,-76.397,-55.995,2.209
0.090,10.631,2.971,2.971,-76.271,-55.749,2.278
0.091,10.900,2.990,2.990,-76.149,-55.518,2.344
0.093,11.140,3.007,3.007,-76.039,-55.313,2.401
0.094,11.337,3.021,3.021,-75.947,-55.146,2.447
0.095,11.478,3.032,3.032,-75.878,-55.025,2.477
0.097,11.569,3.041,3.041,-75.831,-54.950,2.492
0.098,11.616,3.048,3.048,-75.805,-54.912,2.497
0.099,11.628,3.053,3.053,-75.795,-54.905,2.493
0.101,11.649,3.057,3.057,-75.801,-54.923,2.484
0.102,11.691,3.059,3.059,-75.818,-54.959,2.472
0.103,11.747,3.060,3.060,-75.846,-55.007,2.461
0.104,11.810,3.059,3.059,-75.881,-55.059,2.453
0.106,11.875,3.058,3.058,-75.921,-55.110,2.451
0.107,11.935,3.056,3.056,-75.962,-55.153,2.458
0.108,11.988,3.053,3.053,-76.002,-55.185,2.471
0.110,12.028,3.050,3.050,-76.035,-55.202,2.487
0.111,12.055,3.046,3.046,-76.058,-55.203,2.501
0.112,12.078,3.043,3.043,-76.066,-55.183,2.511
0.114,12.121,3.039,3.039,-76.054,-55.142,2.512
0.115,12.198,3.035,3.035,-76.019,-55.075,2.500
0.116,12.315,3.033,3.033,-75.957,-54.980,2.473
0.117,12.480,3.031,3.031,-75.861,-54.854,2.426
0.119,12.696,3.031,3.031,-75.731,-54.696,2.357
0.120,12.955,3.033,3.033,-75.572,-54.511,2.268
0.121,13.244,3.036,3.036,-75.392,-54.309,2.166
0.123,13.549,3.042,3.042,-75.202,-54.098,2.055
0.124,13.857,3.050,3.050,-75.009,-53.887,1.941
0.125,14.154,3.060,3.060,-74.824,-53.683,1.830
0.127,14.427,3.071,3.071,-74.655,-53.497,1.726
0.128,14.661,3.082,3.082,-74.510,-53.336,1.634
0.129,14.844,3.094,3.094,-74.400,-53.209,1.561
0.131,14.966,3.106,3.106,-74.331,-53.123,1.511
0.132,15.032,3.117,3.117,-74.298,-53.073,1.482
0.133,15.057,3.127,3.127,-74.291,-53.052,1.471
0.134,15.068,3.138,3.138,-74.301,-53.050,1.474
0.136,15.092,3.148,3.148,-74.318,-53.059,1.489
0.137,15.121,3.159,3.159,-74.332,-53.071,1.511
0.138,15.149,3.171,3.171,-74.334,-53.076,1.538
0.140,15.184,3.183,3.183,-74.315,-53.068,1.566
0.141,15.248,3.198,3.198,-74.264,-53.037,1.591
0.142,15.359,3.213,3.213,-74.174,-52.976,1.611
0.144,15.512,3.230,3.230,-74.049,-52.889,1.625
0.145,15.696,3.248,3.248,-73.899,-52.782,1.634
0.146,15.902,3.266,3.266,-73.731,-52.663,1.637
0.148,16.117,3.282,3.282,-73.555,-52.538,1.635
0.149,16.331,3.297,3.297,-73.380,-52.416,1.629
0.150,16.533,3.309,3.309,-73.215,-52.301,1.619
0.151,16.710,3.319,3.319,-73.068,-52.203,1.604
0.153,16.853,3.324,3.324,-72.948,-52.127,1.586
0.154,16.954,3.327,3.327,-72.862,-52.079,1.565
0.155,17.018,3.328,3.328,-72.807,-52.054,1.543
0.157,17.059,3.329,3.329,-72.774,-52.045,1.521
0.158,17.085,3.332,3.332,-72.755,-52.041,1.503
0.159,17.105,3.337,3.337,-72.741,-52.035,1.490
0.161,17.130,3.345,3.345,-72.724,-52.017,1.484
0.162,17.177,3.359,3.359,-72.696,-51.980,1.489
0.163,17.260,3.379,3.379,-72.649,-51.914,1.505
0.164,17.391,3.406,3.406,-72.573,-51.811,1.536
0.166,17.581,3.441,3.441,-72.463,-51.665,1.582
0.167,17.822,3.485,3.485,-72.320,-51.479,1.642
0.168,18.104,3.539,3.539,-72.150,-51.266,1.712
0.170,18.413,3.602,3.602,-71.959,-51.035,1.787
0.171,18.737,3.677,3.677,-71.754,-50.796,1.864
0.172,19.064,3.764,3.764,-71.540,-50.560,1.938
0.174,19.382,3.861,3.861,-71.323,-50.338,2.006
0.175,19.679,3.965,3.965,-71.110,-50.139,2.064
0.176,19.946,4.072,4.072,-70.905,-49.974,2.108
0.178,20.173,4.177,4.177,-70.715,-49.852,2.133
0.179,20.366,4.278,4.278,-70.540,-49.770,2.143
0.180,20.532,4.371,4.371,-70.381,-49.724,2.139
0.181,20.677,4.450,4.450,-70.238,-49.706,2.124
0.183,20.808,4.514,4.514,-70.109,-49.710,2.102
0.184,20.927,4.562,4.562,-69.995,-49.730,2.075
0.185,21.034,4.597,4.597,-69.895,-49.759,2.047
0.187,21.129,4.621,4.621,-69.810,-49.791,2.020
0.188,21.210,4.637,4.637,-69.738,-49.820,1.998
0.189,21.273,4.647,4.647,-69.680,-49.841,1.982
0.191,21.321,4.652,4.652,-69.634,-49.852,1.974
0.192,21.356,4.657,4.657,-69.600,-49.855,1.972
0.193,21.381,4.662,4.662,-69.575,-49.852,1.974
0.195,21.400,4.667,4.667,-69.559,-49.844,1.980
0.196,21.417,4.674,4.674,-69.550,-49.832,1.989
0.197,21.434,4.680,4.680,-69.548,-49.819,1.999
0.198,21.451,4.686,4.686,-69.550,-49.806,2.009
0.200,21.467,4.691,4.691,-69.555,-49.793,2.019
0.201,21.482,4.696,4.696,-69.563,-49.784,2.027
0.202,21.494,4.699,4.699,-69.572,-49.777,2.033
0.204,21.504,4.701,4.701,-69.580,-49.773,2.036
0.205,21.511,4.702,4.702,-69.586,-49.771,2.038
0.206,21.514,4.702,4.702,-69.589,-49.771,2.038
0.208,21.517,4.703,4.703,-69.588,-49.773,2.037
0.209,21.525,4.703,4.703,-69.580,-49.776,2.034
0.210,21.541,4.704,4.704,-69.566,-49.780,2.030
0.211,21.565,4.706,4.706,-69.543,-49.785,2.024
0.213,21.599,4.710,4.710,-69.511,-49.791,2.017
0.214,21.641,4.715,4.715,-69.470,-49.798,2.010
0.215,21.689,4.721,4.721,-69.422,-49.804,2.003
0.217,21.741,4.727,4.727,-69.371,-49.811,1.998
0.218,21.796,4.733,4.733,-69.317,-49.817,1.994
0.219,21.849,4.738,4.738,-69.264,-49.824,1.993
0.221,21.901,4.743,4.743,-69.213,-49.830,1.996
0.222,21.948,4.745,4.745,-69.166,-49.835,2.002
0.223,21.991,4.745,4.745,-69.126,-49.840,2.015
0.225,22.027,4.743,4.743,-69.094,-49.844,2.033
0.226,22.063,4.737,4.737,-69.070,-49.847,2.058
0.227,22.102,4.726,4.726,-69.051,-49.850,2.092
0.228,22.148,4.711,4.711,-69.037,-49.852,2.137
0.230,22.206,4.691,4.691,-69.023,-49.855,2.192
0.231,22.276,4.664,4.664,-69.010,-49.858,2.261
0.232,22.360,4.631,4.631,-68.994,-49.862,2.344
0.234,22.461,4.590,4.590,-68.974,-49.866,2.442
0.235,22.580,4.545,4.545,-68.947,-49.872,2.558
0.236,22.718,4.496,4.496,-68.913,-49.879,2.692
0.238,22.873,4.446,4.446,-68.870,-49.888,2.841
0.239,23.041,4.396,4.396,-68.819,-49.896,3.001
0.240,23.217,4.350,4.350,-68.761,-49.903,3.167
0.242,23.396,4.308,4.308,-68.697,-49.909,3.334
0.243,23.575,4.274,4.274,-68.626,-49.912,3.498
0.244,23.749,4.247,4.247,-68.551,-49.912,3.655
0.245,23.915,4.226,4.226,-68.470,-49.907,3.800
0.247,24.069,4.212,4.212,-68.386,-49.898,3.928
0.248,24.208,4.201,4.201,-68.298,-49.882,4.035
0.249,24.335,4.194,4.194,-68.207,-49.861,4.122
0.251,24.452,4.188,4.188,-68.116,-49.837,4.191
0.252,24.562,4.183,4.183,-68.024,-49.809,4.245
0.253,24.666,4.177,4.177,-67.934,-49.780,4.288
0.255,24.764,4.170,4.170,-67.847,-49.751,4.321
0.256,24.857,4.163,4.163,-67.763,-49.723,4.349
0.257,24.943,4.155,4.155,-67.684,-49.697,4.373
0.258,25.022,4.147,4.147,-67.612,-49.674,4.396
0.260,25.094,4.139,4.139,-67.547,-49.657,4.422
0.261,25.159,4.132,4.132,-67.490,-49.644,4.449
0.262,25.218,4.125,4.125,-67.440,-49.635,4.478
0.264,25.270,4.119,4.119,-67.396,-49.629,4.507
0.265,25.317,4.115,4.115,-67.359,-49.626,4.535
0.266,25.358,4.111,4.111,-67.327,-49.625,4.561
0.268,25.393,4.108,4.108,-67.300,-49.625,4.583
0.269,25.421,4.106,4.106,-67.278,-49.627,4.601
0.270,25.443,4.105,4.105,-67.261,-49.628,4.614
0.272,25.458,4.104,4.104,-67.247,-49.629,4.620
0.273,25.469,4.104,4.104,-67.236,-49.629,4.621
0.274,25.478,4.105,4.105,-67.227,-49.628,4.618
0.275,25.487,4.106,4.106,-67.220,-49.626,4.612
0.277,25.496,4.107,4.107,-67.214,-49.624,4.606
0.278,25.504,4.108,4.108,-67.209,-49.621,4.601
0.279,25.512,4.107,4.107,-67.203,-49.618,4.599
0.281,25.520,4.106,4.106,-67.196,-49.614,4.601
0.282,25.533,4.103,4.103,-67.187,-49.608,4.609
0.283,25.553,4.099,4.099,-67.175,-49.603,4.624
0.285,25.581,4.093,4.093,-67.161,-49.596,4.647
0.286,25.613,4.085,4.085,-67.146,-49.590,4.675
0.287,25.650,4.076,4.076,-67.129,-49.583,4.707
0.289,25.689,4.067,4.067,-67.112,-49.575,4.741
0.290,25.729,4.057,4.057,-67.095,-49.568,4.776
0.291,25.767,4.048,4.048,-67.079,-49.562,4.810
0.292,25.803,4.039,4.039,-67.064,-49.555,4.842
0.294,25.834,4.031,4.031,-67.052,-49.549,4.870
0.295,25.860,4.025,4.025,-67.041,-49.544,4.893
0.296,25.879,4.020,4.020,-67.034,-49.540,4.910
0.298,25.892,4.016,4.016,-67.028,-49.537,4.922
0.299,25.899,4.013,4.013,-67.026,-49.534,4.928
0.300,25.902,4.013,4.013,-67.025,-49.533,4.930
0.302,25.905,4.013,4.013,-67.025,-49.534,4.927
0.303,25.912,4.016,4.016,-67.028,-49.535,4.920
0.304,25.924,4.020,4.020,-67.032,-49.538,4.909
0.305,25.940,4.025,4.025,-67.037,-49.543,4.895
0.307,25.960,4.030,4.030,-67.043,-49.549,4.877
0.308,25.981,4.034,4.034,-67.050,-49.556,4.858
0.309,26.001,4.037,4.037,-67.056,-49.563,4.840
0.311,26.017,4.037,4.037,-67.061,-49.569,4.826
0.312,26.026,4.035,4.035,-67.064,-49.572,4.818
0.313,26.027,4.028,4.028,-67.063,-49.572,4.819
0.315,26.041,4.016,4.016,-67.059,-49.568,4.831
0.316,26.070,4.001,4.001,-67.050,-49.558,4.857
0.317,26.118,3.982,3.982,-67.035,-49.541,4.899
0.319,26.187,3.960,3.960,-67.014,-49.517,4.960
0.320,26.274,3.937,3.937,-66.987,-49.486,5.037
0.321,26.376,3.912,3.912,-66.955,-49.450,5.127
0.322,26.488,3.886,3.886,-66.919,-49.411,5.225
0.324,26.604,3.860,3.860,-66.882,-49.371,5.328
0.325,26.719,3.835,3.835,-66.843,-49.333,5.430
0.326,26.830,3.811,3.811,-66.805,-49.298,5.528
0.328,26.931,3.789,3.789,-66.768,-49.269,5.617
0.329,27.018,3.768,3.768,-66.733,-49.246,5.693
0.330,27.086,3.750,3.750,-66.703,-49.233,5.753
0.332,27.137,3.734,3.734,-66.676,-49.228,5.797
0.333,27.177,3.722,3.722,-66.653,-49.230,5.828
0.334,27.209,3.713,3.713,-66.632,-49.237,5.851
0.336,27.238,3.707,3.707,-66.613,-49.247,5.870
0.337,27.266,3.702,3.702,-66.594,-49.258,5.888
0.338,27.295,3.695,3.695,-66.576,-49.269,5.909
0.339,27.330,3.686,3.686,-66.558,-49.277,5.938
0.341,27.374,3.673,3.673,-66.538,-49.280,5.976
0.342,27.432,3.653,3.653,-66.516,-49.278,6.030
0.343,27.506,3.625,3.625,-66.490,-49.271,6.099
0.345,27.599,3.588,3.588,-66.460,-49.260,6.186
0.346,27.711,3.544,3.544,-66.422,-49.250,6.291
0.347,27.844,3.497,3.497,-66.374,-49.242,6.415
0.349,27.999,3.450,3.450,-66.316,-49.239,6.558
0.350,28.177,3.406,3.406,-66.245,-49.243,6.722
0.351,28.382,3.369,3.369,-66.159,-49.258,6.908
0.352,28.615,3.342,3.342,-66.056,-49.285,7.115
0.354,28.878,3.328,3.328,-65.935,-49.327,7.345
0.355,29.167,3.330,3.330,-65.798,-49.383,7.593
0.356,29.472,3.344,3.344,-65.650,-49.449,7.852
0.358,29.785,3.367,3.367,-65.497,-49.522,8.114
0.359,30.095,3.396,3.396,-65.343,-49.598,8.372
0.360,30.394,3.427,3.427,-65.193,-49.675,8.619
0.362,30.671,3.458,3.458,-65.054,-49.748,8.847
0.363,30.916,3.484,3.484,-64.929,-49.814,9.048
0.364,31.121,3.503,3.503,-64.825,-49.871,9.215
0.366,31.277,3.514,3.514,-64.746,-49.913,9.342
0.367,31.384,3.520,3.520,-64.691,-49.942,9.429
0.368,31.452,3.524,3.524,-64.657,-49.957,9.486
0.369,31.490,3.528,3.528,-64.639,-49.959,9.520
0.371,31.512,3.535,3.535,-64.634,-49.949,9.539
0.372,31.537,3.548,3.548,-64.637,-49.928,9.552
0.373,31.572,3.570,3.570,-64.645,-49.897,9.566
0.375,31.620,3.604,3.604,-64.652,-49.856,9.590
0.376,31.685,3.647,3.647,-64.656,-49.806,9.631
0.377,31.773,3.698,3.698,-64.653,-49.749,9.698
0.379,31.884,3.752,3.752,-64.641,-49.686,9.789
0.380,32.013,3.807,3.807,-64.622,-49.619,9.897
0.381,32.150,3.859,3.859,-64.600,-49.551,10.015
0.383,32.290,3.906,3.906,-64.575,-49.484,10.135
0.384,32.422,3.944,3.944,-64.549,-49.422,10.249
0.385,32.541,3.970,3.970,-64.524,-49.366,10.351
0.386,32.638,3.987,3.987,-64.502,-49.319,10.432
0.388,32.704,3.996,3.996,-64.486,-49.284,10.486
0.389,32.735,4.000,4.000,-64.476,-49.262,10.506
0.390,32.750,4.001,4.001,-64.472,-49.253,10.495
0.392,32.781,4.001,4.001,-64.474,-49.253,10.463
0.393,32.823,4.003,4.003,-64.479,-49.259,10.423
0.394,32.863,4.009,4.009,-64.486,-49.268,10.383
0.396,32.892,4.021,4.021,-64.492,-49.274,10.357
0.397,32.898,4.040,4.040,-64.497,-49.276,10.353
0.398,32.930,4.068,4.068,-64.499,-49.269,10.384
0.399,33.008,4.105,4.105,-64.496,-49.251,10.459
0.401,33.143,4.154,4.154,-64.486,-49.217,10.590
0.402,33.333,4.214,4.214,-64.470,-49.168,10.773
0.403,33.565,4.288,4.288,-64.447,-49.110,10.996
0.405,33.824,4.377,4.377,-64.420,-49.046,11.246
0.406,34.097,4.478,4.478,-64.390,-48.980,11.510
0.407,34.372,4.587,4.587,-64.356,-48.918,11.774
0.409,34.633,4.699,4.699,-64.321,-48.862,12.028
0.410,34.869,4.808,4.808,-64.285,-48.819,12.256
0.411,35.065,4.909,4.909,-64.248,-48.791,12.447
0.413,35.211,4.998,4.998,-64.213,-48.783,12.589
0.414,35.310,5.069,5.069,-64.179,-48.797,12.681
0.415,35.378,5.118,5.118,-64.146,-48.830,12.731
0.416,35.441,5.147,5.147,-64.115,-48.881,12.749
0.418,35.515,5.160,5.160,-64.085,-48.948,12.744
0.419,35.605,5.161,5.161,-64.055,-49.031,12.725
0.420,35.708,5.155,5.155,-64.027,-49.127,12.701
0.422,35.821,5.146,5.146,-63.999,-49.234,12.681
0.423,35.942,5.139,5.139,-63.973,-49.352,12.674
0.424,36.072,5.138,5.138,-63.947,-49.479,12.688
0.426,36.211,5.146,5.146,-63.922,-49.611,12.725
0.427,36.359,5.163,5.163,-63.898,-49.746,12.780
0.428,36.511,5.185,5.185,-63.875,-49.880,12.848
0.430,36.662,5.210,5.210,-63.854,-50.009,12.924
0.431,36.808,5.237,5.237,-63.835,-50.130,13.002
0.432,36.942,5.263,5.263,-63.817,-50.239,13.078
0.433,37.059,5.285,5.285,-63.802,-50.334,13.147
0.435,37.154,5.301,5.301,-63.790,-50.409,13.203
0.436,37.221,5.311,5.311,-63.780,-50.462,13.242
0.437,37.261,5.316,5.316,-63.773,-50.495,13.264
0.439,37.282,5.317,5.317,-63.768,-50.512,13.274
0.440,37.289,5.316,5.316,-63.765,-50.520,13.275
0.441,37.292,5.316,5.316,-63.765,-50.522,13.273
0.443,37.296,5.317,5.317,-63.766,-50.525,13.273
0.444,37.306,5.321,5.321,-63.769,-50.534,13.277
0.445,37.332,5.331,5.331,-63.773,-50.554,13.293
0.446,37.379,5.346,5.346,-63.777,-50.590,13.322
0.448,37.455,5.364,5.364,-63.783,-50.649,13.371
0.449,37.560,5.385,5.385,-63.790,-50.728,13.439
0.450,37.686,5.407,5.407,-63.798,-50.824,13.521
0.452,37.827,5.429,5.429,-63.808,-50.930,13.613
0.453,37.975,5.449,5.449,-63.822,-51.041,13.710
0.454,38.124,5.467,5.467,-63.839,-51.152,13.807
0.456,38.267,5.480,5.480,-63.861,-51.257,13.901
0.457,38.397,5.489,5.489,-63.888,-51.351,13.987
0.458,38.508,5.495,5.495,-63.921,-51.429,14.059
0.460,38.596,5.498,5.498,-63.959,-51.485,14.115
0.461,38.665,5.500,5.500,-64.004,-51.519,14.155
0.462,38.726,5.502,5.502,-64.055,-51.535,14.185
0.463,38.787,5.503,5.503,-64.110,-51.535,14.212
0.465,38.854,5.505,5.505,-64.169,-51.525,14.242
0.466,38.930,5.508,5.508,-64.231,-51.507,14.282
0.467,39.018,5.510,5.510,-64.295,-51.485,14.339
0.469,39.123,5.511,5.511,-64.361,-51.464,14.418
0.470,39.251,5.508,5.508,-64.427,-51.446,14.526
0.471,39.410,5.500,5.500,-64.493,-51.436,14.669
0.473,39.599,5.485,5.485,-64.558,-51.434,14.847
0.474,39.812,5.462,5.462,-64.620,-51.439,15.051
0.475,40.043,5.429,5.429,-64.679,-51.450,15.274
0.477,40.284,5.386,5.386,-64.734,-51.466,15.508
0.478,40.527,5.336,5.336,-64.784,-51.485,15.745
0.479,40.763,5.283,5.283,-64.827,-51.506,15.977
0.480,40.986,5.228,5.228,-64.863,-51.526,16.196
0.482,41.188,5.177,5.177,-64.890,-51.546,16.394
0.483,41.360,5.131,5.131,-64.908,-51.564,16.564
0.484,41.500,5.094,5.094,-64.917,-51.579,16.704
0.486,41.613,5.068,5.068,-64.918,-51.591,16.816
0.487,41.702,5.055,5.055,-64.913,-51.600,16.904
0.488,41.770,5.051,5.051,-64.903,-51.607,16.972
0.490,41.822,5.054,5.054,-64.890,-51.612,17.021
0.491,41.860,5.061,5.061,-64.875,-51.616,17.056
0.492,41.888,5.072,5.072,-64.860,-51.618,17.079
0.493,41.909,5.082,5.082,-64.846,-51.618,17.095
0.495,41.925,5.091,5.091,-64.835,-51.617,17.105
0.496,41.937,5.095,5.095,-64.826,-51.615,17.115
0.497,41.950,5.095,5.095,-64.821,-51.612,17.126
0.499,41.968,5.091,5.091,-64.818,-51.609,17.143
0.500,41.995,5.083,5.083,-64.817,-51.605,17.170
0.501,42.034,5.073,5.072,-64.818,-51.600,17.209
0.503,42.091,5.060,5.059,-64.821,-51.594,17.265
0.504,42.167,5.044,5.044,-64.825,-51.588,17.341
0.505,42.268,5.027,5.027,-64.830,-51.582,17.441
0.507,42.395,5.009,5.009,-64.836,-51.576,17.568
0.508,42.548,4.990,4.990,-64.843,-51.570,17.721
0.509,42.718,4.971,4.972,-64.850,-51.563,17.891
0.510,42.900,4.952,4.953,-64.857,-51.557,18.072
0.512,43.085,4.934,4.935,-64.864,-51.551,18.257
0.513,43.265,4.918,4.918,-64.871,-51.546,18.437
0.514,43.434,4.903,4.904,-64.878,-51.541,18.606
0.516,43.585,4.892,4.891,-64.885,-51.537,18.756
0.517,43.708,4.883,4.881,-64.892,-51.533,18.880
0.518,43.799,4.877,4.874,-64.898,-51.531,18.970
0.520,43.855,4.874,4.870,-64.903,-51.529,19.026
0.521,43.884,4.873,4.869,-64.907,-51.528,19.055
0.522,43.893,4.875,4.871,-64.911,-51.528,19.063
0.523,43.899,4.879,4.876,-64.912,-51.528,19.056
0.525,43.913,4.885,4.884,-64.913,-51.529,19.042
0.526,43.927,4.893,4.896,-64.911,-51.529,19.028
0.527,43.936,4.903,4.910,-64.907,-51.529,19.020
0.529,43.944,4.914,4.926,-64.901,-51.529,19.024
0.530,43.969,4.924,4.942,-64.893,-51.529,19.048
0.531,44.016,4.934,4.957,-64.882,-51.528,19.094
0.533,44.081,4.942,4.970,-64.871,-51.526,19.157
0.534,44.160,4.949,4.979,-64.859,-51.525,19.235
0.535,44.250,4.952,4.984,-64.847,-51.525,19.325
0.537,44.347,4.952,4.982,-64.837,-51.524,19.422
0.538,44.449,4.948,4.976,-64.830,-51.525,19.523
0.539,44.551,4.943,4.967,-64.826,-51.527,19.625
0.540,44.651,4.936,4.955,-64.827,-51.530,19.725
0.542,44.745,4.929,4.943,-64.833,-51.535,19.819
0.543,44.833,4.922,4.930,-64.843,-51.541,19.906
0.544,44.915,4.917,4.920,-64.856,-51.549,19.986
0.546,44.992,4.913,4.912,-64.869,-51.559,20.062
0.547,45.066,4.912,4.909,-64.879,-51.570,20.134
0.548,45.137,4.912,4.908,-64.884,-51.582,20.204
0.550,45.208,4.913,4.908,-64.882,-51.596,20.273
