"T","Distance","Radius","FreeRadius","X","Y","Z"
0.000,0.000,1.354,1.354,319.197,298.630,303.020
0.001,0.083,1.373,1.373,319.115,298.645,303.015
0.002,0.164,1.392,1.392,319.035,298.660,303.009
0.003,0.243,1.409,1.409,318.958,298.674,303.003
0.005,0.317,1.426,1.426,318.886,298.687,302.997
0.006,0.384,1.441,1.441,318.820,298.698,302.990
0.007,0.445,1.455,1.455,318.761,298.708,302.982
0.008,0.496,1.466,1.466,318.711,298.717,302.974
0.009,0.537,1.475,1.475,318.672,298.722,302.964
0.010,0.567,1.481,1.481,318.644,298.726,302.953
0.012,0.587,1.484,1.484,318.627,298.727,302.942
0.013,0.600,1.485,1.485,318.617,298.728,302.933
0.014,0.610,1.483,1.483,318.610,298.729,302.928
0.015,0.619,1.479,1.479,318.600,298.732,302.929
0.016,0.638,1.475,1.475,318.586,298.738,302.938
0.017,0.672,1.469,1.469,318.561,298.749,302.958
0.018,0.725,1.462,1.462,318.523,298.766,302.991
0.020,0.802,1.456,1.456,318.467,298.791,303.039
0.021,0.907,1.449,1.449,318.391,298.823,303.103
0.022,1.035,1.443,1.443,318.297,298.863,303.180
0.023,1.181,1.438,1.438,318.191,298.910,303.268
0.024,1.339,1.434,1.434,318.076,298.962,303.364
0.025,1.504,1.431,1.431,317.958,299.018,303.465
0.027,1.670,1.429,1.429,317.841,299.077,303.567
0.028,1.833,1.428,1.428,317.729,299.138,303.668
0.029,1.986,1.429,1.429,317.626,299.201,303.764
0.030,2.126,1.432,1.432,317.538,299.263,303.852
0.031,2.252,1.436,1.436,317.463,299.323,303.933
0.032,2.367,1.443,1.443,317.399,299.381,304.010
0.033,2.476,1.453,1.453,317.342,299.435,304.085
0.035,2.582,1.466,1.466,317.287,299.483,304.162
0.036,2.690,1.483,1.483,317.231,299.524,304.244
0.037,2.804,1.505,1.505,317.170,299.557,304.335
0.038,2.930,1.532,1.532,317.099,299.580,304.436
0.039,3.073,1.564,1.564,317.016,299.593,304.552
0.040,3.237,1.603,1.603,316.918,299.593,304.684
0.042,3.419,1.649,1.649,316.807,299.582,304.827
0.043,3.612,1.699,1.699,316.688,299.562,304.978
0.044,3.809,1.751,1.751,316.565,299.533,305.130
0.045,4.005,1.803,1.803,316.443,299.498,305.278
0.046,4.191,1.852,1.852,316.326,299.458,305.418
0.047,4.362,1.897,1.897,316.218,299.414,305.543
0.048,4.512,1.935,1.935,316.124,299.368,305.650
0.050,4.634,1.963,1.963,316.047,299.321,305.732
0.051,4.728,1.980,1.980,315.988,299.275,305.790
0.052,4.800,1.984,1.984,315.944,299.232,305.826
0.053,4.853,1.978,1.978,315.913,299.193,305.843
0.054,4.893,1.966,1.966,315.891,299.159,305.845
0.055,4.924,1.949,1.949,315.876,299.133,305.836
0.057,4.951,1.930,1.930,315.866,299.117,305.818
0.058,4.977,1.914,1.914,315.856,299.111,305.795
0.059,5.005,1.901,1.901,315.845,299.118,305.769
0.060,5.040,1.895,1.895,315.830,299.139,305.746
0.061,5.078,1.899,1.899,315.811,299.168,305.729
0.062,5.119,1.912,1.912,315.788,299.201,305.726
0.064,5.162,1.931,1.931,315.762,299.233,305.741
0.065,5.217,1.952,1.952,315.733,299.259,305.780
0.066,5.295,1.973,1.973,315.702,299.274,305.849
0.067,5.405,1.990,1.990,315.668,299.272,305.953
0.068,5.556,1.999,1.999,315.632,299.249,306.099
0.069,5.758,1.998,1.998,315.595,299.201,306.291
0.070,6.008,1.982,1.982,315.557,299.125,306.526
0.072,6.295,1.950,1.950,315.523,299.025,306.793
0.073,6.608,1.902,1.902,315.494,298.903,307.079
0.074,6.935,1.842,1.842,315.473,298.763,307.375
0.075,7.267,1.774,1.774,315.463,298.606,307.667
0.076,7.593,1.702,1.702,315.467,298.435,307.944
0.077,7.904,1.629,1.629,315.488,298.254,308.196
0.079,8.193,1.559,1.559,315.529,298.064,308.411
0.080,8.458,1.496,1.496,315.589,297.869,308.580
0.081,8.704,1.444,1.444,315.667,297.674,308.707
0.082,8.932,1.405,1.405,315.755,297.483,308.797
0.083,9.145,1.379,1.379,315.849,297.302,308.856
0.084,9.339,1.362,1.362,315.945,297.137,308.890
0.085,9.511,1.353,1.353,316.036,296.991,308.903
0.087,9.656,1.351,1.351,316.117,296.871,308.901
0.088,9.768,1.352,1.352,316.184,296.781,308.890
0.089,9.842,1.355,1.355,316.231,296.726,308.875
0.090,9.881,1.357,1.357,316.258,296.704,308.859
0.091,9.900,1.358,1.358,316.270,296.705,308.844
0.092,9.919,1.355,1.355,316.270,296.721,308.834
0.094,9.943,1.348,1.348,316.262,296.743,308.829
0.095,9.966,1.338,1.338,316.250,296.762,308.832
0.096,9.986,1.325,1.325,316.238,296.771,308.845
0.097,10.015,1.308,1.308,316.231,296.759,308.871
0.098,10.072,1.290,1.290,316.231,296.718,308.911
0.099,10.166,1.268,1.268,316.242,296.643,308.966
0.100,10.294,1.245,1.245,316.261,296.537,309.036
0.102,10.452,1.219,1.219,316.285,296.404,309.117
0.103,10.634,1.193,1.193,316.311,296.249,309.209
0.104,10.834,1.166,1.166,316.334,296.077,309.308
0.105,11.046,1.140,1.140,316.353,295.893,309.413
0.106,11.266,1.117,1.117,316.363,295.703,309.521
0.107,11.488,1.097,1.097,316.362,295.509,309.631
0.109,11.708,1.083,1.083,316.347,295.319,309.740
0.110,11.924,1.074,1.074,316.317,295.133,309.847
0.111,12.132,1.073,1.073,316.278,294.956,309.949
0.112,12.331,1.081,1.081,316.233,294.788,310.044
0.113,12.515,1.096,1.096,316.187,294.632,310.130
0.114,12.682,1.117,1.117,316.141,294.489,310.206
0.115,12.829,1.142,1.142,316.102,294.362,310.268
0.117,12.951,1.169,1.169,316.072,294.253,310.314
0.118,13.047,1.197,1.197,316.056,294.164,310.344
0.119,13.117,1.225,1.225,316.055,294.094,310.354
0.120,13.171,1.249,1.249,316.069,294.042,310.349
0.121,13.221,1.269,1.269,316.094,294.004,310.329
0.122,13.276,1.283,1.283,316.127,293.975,310.297
0.124,13.337,1.292,1.292,316.166,293.951,310.256
0.125,13.405,1.297,1.297,316.209,293.930,310.208
0.126,13.477,1.298,1.298,316.253,293.906,310.155
0.127,13.552,1.296,1.296,316.294,293.877,310.101
0.128,13.628,1.291,1.291,316.331,293.839,310.046
0.129,13.706,1.286,1.286,316.363,293.791,309.993
0.130,13.785,1.279,1.279,316.389,293.736,309.943
0.132,13.863,1.273,1.273,316.410,293.677,309.897
0.133,13.938,1.268,1.268,316.425,293.615,309.856
0.134,14.009,1.263,1.263,316.436,293.555,309.821
0.135,14.074,1.258,1.258,316.441,293.496,309.793
0.136,14.130,1.252,1.252,316.441,293.444,309.773
0.137,14.177,1.247,1.247,316.436,293.399,309.762
0.139,14.214,1.240,1.240,316.427,293.363,309.760
0.140,14.243,1.232,1.232,316.416,293.336,309.763
0.141,14.264,1.222,1.222,316.408,293.317,309.766
0.142,14.278,1.211,1.211,316.403,293.303,309.765
0.143,14.292,1.198,1.198,316.407,293.295,309.754
0.144,14.321,1.184,1.184,316.422,293.291,309.729
0.145,14.373,1.169,1.169,316.450,293.290,309.685
0.147,14.454,1.154,1.154,316.495,293.291,309.618
0.148,14.569,1.140,1.140,316.560,293.292,309.524
0.149,14.713,1.127,1.127,316.641,293.293,309.404
0.150,14.878,1.116,1.116,316.731,293.292,309.267
0.151,15.052,1.107,1.107,316.823,293.289,309.119
0.152,15.226,1.101,1.101,316.909,293.283,308.967
0.154,15.391,1.098,1.098,316.982,293.274,308.820
0.155,15.539,1.097,1.097,317.035,293.259,308.683
0.156,15.662,1.097,1.097,317.060,293.239,308.564
0.157,15.759,1.099,1.099,317.050,293.212,308.471
0.158,15.848,1.101,1.101,317.001,293.176,308.406
0.159,15.950,1.104,1.104,316.921,293.129,308.365
0.161,16.073,1.106,1.106,316.818,293.065,308.338
0.162,16.219,1.108,1.108,316.701,292.981,308.320
0.163,16.385,1.109,1.109,316.578,292.871,308.302
0.164,16.570,1.111,1.111,316.458,292.733,308.277
0.165,16.776,1.114,1.114,316.349,292.561,308.238
0.166,17.012,1.121,1.121,316.260,292.352,308.177
0.167,17.284,1.133,1.133,316.198,292.103,308.088
0.169,17.592,1.152,1.152,316.163,291.820,307.971
0.170,17.923,1.180,1.180,316.145,291.519,307.834
0.171,18.264,1.217,1.217,316.137,291.213,307.682
0.172,18.600,1.266,1.266,316.131,290.918,307.523
0.173,18.914,1.326,1.326,316.119,290.648,307.364
0.174,19.192,1.394,1.394,316.092,290.418,307.210
0.176,19.423,1.466,1.466,316.044,290.242,307.068
0.177,19.604,1.538,1.538,315.965,290.135,306.946
0.178,19.758,1.608,1.608,315.851,290.103,306.847
0.179,19.923,1.671,1.671,315.708,290.134,306.770
0.180,20.116,1.724,1.724,315.541,290.212,306.713
0.181,20.335,1.763,1.763,315.357,290.324,306.673
0.182,20.571,1.784,1.784,315.162,290.453,306.649
0.184,20.811,1.789,1.789,314.961,290.585,306.639
0.185,21.044,1.781,1.781,314.761,290.704,306.640
0.186,21.257,1.764,1.764,314.568,290.795,306.650
0.187,21.445,1.743,1.743,314.388,290.844,306.667
0.188,21.613,1.722,1.722,314.222,290.849,306.691
0.189,21.771,1.705,1.705,314.070,290.816,306.721
0.191,21.929,1.696,1.696,313.931,290.750,306.757
0.192,22.091,1.700,1.700,313.805,290.656,306.798
0.193,22.261,1.720,1.720,313.690,290.541,306.846
0.194,22.436,1.755,1.755,313.587,290.409,306.899
0.195,22.616,1.802,1.802,313.494,290.267,306.958
0.196,22.798,1.858,1.858,313.411,290.119,307.022
0.197,22.978,1.920,1.920,313.337,289.970,307.091
0.199,23.153,1.983,1.983,313.272,289.824,307.163
0.200,23.323,2.046,2.046,313.214,289.682,307.235
0.201,23.483,2.105,2.105,313.163,289.547,307.306
0.202,23.631,2.157,2.157,313.119,289.422,307.373
0.203,23.764,2.200,2.200,313.080,289.310,307.433
0.204,23.880,2.232,2.232,313.047,289.213,307.486
0.206,23.975,2.256,2.256,313.017,289.132,307.527
0.207,24.047,2.270,2.270,312.992,289.072,307.557
0.208,24.097,2.275,2.275,312.970,289.031,307.575
0.209,24.129,2.272,2.272,312.952,289.007,307.586
0.210,24.147,2.261,2.261,312.938,288.998,307.593
0.211,24.158,2.243,2.243,312.929,289.001,307.598
0.212,24.175,2.217,2.217,312.925,289.015,307.605
0.214,24.200,2.184,2.184,312.925,289.038,307.617
0.215,24.237,2.146,2.146,312.932,289.067,307.638
0.216,24.285,2.105,2.105,312.944,289.101,307.671
0.217,24.346,2.061,2.061,312.961,289.135,307.718
0.218,24.417,2.016,2.016,312.975,289.164,307.781
0.219,24.499,1.972,1.972,312.982,289.184,307.861
0.221,24.598,1.930,1.930,312.974,289.186,307.959
0.222,24.721,1.891,1.891,312.946,289.167,308.077
0.223,24.877,1.857,1.857,312.891,289.119,308.215
0.224,25.077,1.829,1.829,312.802,289.038,308.375
0.225,25.331,1.806,1.806,312.674,288.917,308.558
0.226,25.648,1.790,1.790,312.501,288.751,308.765
0.227,26.019,1.781,1.781,312.288,288.547,308.990
0.229,26.427,1.779,1.779,312.048,288.317,309.228
0.230,26.854,1.783,1.783,311.793,288.075,309.470
0.231,27.283,1.796,1.796,311.534,287.831,309.708
0.232,27.693,1.817,1.817,311.283,287.600,309.937
0.233,28.068,1.845,1.845,311.052,287.393,310.147
0.234,28.389,1.881,1.881,310.852,287.224,310.332
0.236,28.638,1.922,1.922,310.696,287.104,310.485
0.237,28.809,1.967,1.967,310.589,287.038,310.601
0.238,28.916,2.013,2.013,310.523,287.018,310.683
0.239,28.979,2.059,2.059,310.491,287.031,310.735
0.240,29.024,2.103,2.103,310.483,287.067,310.762
0.241,29.071,2.144,2.144,310.490,287.113,310.765
0.242,29.121,2.179,2.179,310.505,287.159,310.751
0.244,29.167,2.208,2.208,310.517,287.192,310.721
0.245,29.209,2.231,2.231,310.519,287.202,310.680
0.246,29.266,2.248,2.248,310.503,287.177,310.632
0.247,29.351,2.261,2.261,310.468,287.121,310.578
0.248,29.463,2.270,2.270,310.419,287.039,310.520
0.249,29.593,2.276,2.276,310.361,286.939,310.460
0.251,29.735,2.279,2.279,310.297,286.828,310.400
0.252,29.879,2.280,2.280,310.232,286.713,310.339
0.253,30.019,2.281,2.281,310.170,286.603,310.281
0.254,30.145,2.281,2.281,310.115,286.503,310.227
0.255,30.249,2.282,2.282,310.072,286.422,310.177
0.256,30.329,2.283,2.283,310.042,286.362,310.134
0.258,30.389,2.286,2.286,310.021,286.319,310.098
0.259,30.434,2.290,2.290,310.005,286.288,310.070
0.260,30.470,2.297,2.297,309.991,286.262,310.050
0.261,30.502,2.307,2.307,309.972,286.238,310.039
0.262,30.541,2.320,2.320,309.946,286.208,310.038
0.263,30.597,2.337,2.337,309.909,286.169,310.047
0.264,30.676,2.357,2.357,309.855,286.114,310.068
0.266,30.787,2.381,2.381,309.781,286.039,310.099
0.267,30.923,2.406,2.406,309.690,285.946,310.141
0.268,31.079,2.432,2.432,309.585,285.841,310.189
0.269,31.244,2.459,2.459,309.474,285.730,310.239
0.270,31.411,2.485,2.485,309.360,285.618,310.290
0.271,31.572,2.509,2.509,309.248,285.513,310.337
0.273,31.719,2.532,2.532,309.143,285.419,310.378
0.274,31.842,2.551,2.551,309.051,285.342,310.408
0.275,31.936,2.567,2.567,308.977,285.288,310.426
0.276,31.998,2.581,2.581,308.922,285.259,310.429
0.277,32.040,2.591,2.591,308.883,285.248,310.418
0.278,32.075,2.598,2.598,308.856,285.248,310.397
0.279,32.112,2.602,2.602,308.837,285.251,310.365
0.281,32.154,2.604,2.604,308.822,285.249,310.325
0.282,32.205,2.603,2.603,308.806,285.237,310.279
0.283,32.268,2.599,2.599,308.787,285.205,310.227
0.284,32.352,2.592,2.592,308.760,285.147,310.173
0.285,32.465,2.584,2.584,308.721,285.057,310.117
0.286,32.605,2.573,2.573,308.671,284.939,310.061
0.288,32.764,2.562,2.562,308.613,284.803,310.004
0.289,32.932,2.549,2.549,308.550,284.657,309.948
0.290,33.102,2.537,2.537,308.484,284.510,309.893
0.291,33.263,2.524,2.524,308.418,284.374,309.840
0.292,33.406,2.512,2.512,308.355,284.255,309.789
0.293,33.524,2.502,2.502,308.298,284.165,309.740
0.294,33.609,2.492,2.492,308.249,284.111,309.695
0.296,33.667,2.483,2.483,308.211,284.096,309.654
0.297,33.713,2.474,2.474,308.183,284.110,309.620
0.298,33.755,2.466,2.466,308.167,284.139,309.595
0.299,33.792,2.456,2.456,308.162,284.173,309.583
0.300,33.819,2.446,2.446,308.168,284.200,309.585
0.301,33.847,2.434,2.434,308.187,284.207,309.604
0.303,33.902,2.420,2.420,308.217,284.183,309.643
0.304,34.003,2.404,2.404,308.261,284.115,309.705
0.305,34.161,2.386,2.386,308.317,283.994,309.790
0.306,34.372,2.367,2.367,308.384,283.826,309.896
0.307,34.621,2.346,2.346,308.459,283.621,310.017
0.308,34.895,2.326,2.326,308.541,283.393,310.145
0.309,35.181,2.307,2.307,308.627,283.154,310.276
0.311,35.466,2.289,2.289,308.714,282.914,310.403
0.312,35.735,2.274,2.274,308.800,282.687,310.519
0.313,35.976,2.262,2.262,308.883,282.485,310.620
0.314,36.175,2.253,2.253,308.960,282.319,310.698
0.315,36.328,2.248,2.248,309.030,282.193,310.751
0.316,36.446,2.246,2.245,309.091,282.097,310.783
0.318,36.539,2.245,2.245,309.144,282.022,310.796
0.319,36.619,2.245,2.245,309.187,281.954,310.796
0.320,36.697,2.246,2.246,309.221,281.885,310.785
0.321,36.785,2.247,2.246,309.244,281.802,310.768
0.322,36.895,2.246,2.246,309.256,281.695,310.747
0.323,37.038,2.243,2.243,309.257,281.553,310.727
0.324,37.225,2.239,2.239,309.246,281.367,310.712
0.326,37.453,2.233,2.234,309.224,281.140,310.701
0.327,37.713,2.229,2.229,309.193,280.882,310.697
0.328,37.996,2.227,2.228,309.157,280.602,310.698
0.329,38.292,2.230,2.231,309.115,280.308,310.705
0.330,38.593,2.239,2.240,309.072,280.011,310.718
0.331,38.890,2.256,2.256,309.028,279.718,310.738
0.333,39.173,2.282,2.282,308.985,279.439,310.765
0.334,39.434,2.320,2.320,308.947,279.184,310.799
0.335,39.667,2.368,2.368,308.913,278.956,310.839
0.336,39.874,2.425,2.424,308.885,278.757,310.883
0.337,40.055,2.488,2.486,308.861,278.583,310.928
0.338,40.211,2.552,2.551,308.842,278.435,310.973
0.339,40.343,2.616,2.615,308.828,278.310,311.014
0.341,40.452,2.676,2.675,308.818,278.207,311.050
0.342,40.538,2.730,2.729,308.812,278.126,311.077
0.343,40.601,2.773,2.773,308.811,278.065,311.093
0.344,40.644,2.804,2.805,308.814,278.023,311.098
0.345,40.671,2.823,2.825,308.820,277.996,311.093
0.346,40.689,2.831,2.834,308.826,277.983,311.084
0.348,40.700,2.831,2.836,308.833,277.979,311.076
0.349,40.706,2.826,2.831,308.837,277.982,311.073
0.350,40.717,2.818,2.823,308.837,277.990,311.081
0.351,40.743,2.809,2.814,308.833,277.998,311.105
0.352,40.789,2.802,2.805,308.821,278.004,311.150
0.353,40.862,2.799,2.799,308.800,278.005,311.220
0.355,40.964,2.802,2.798,308.771,277.998,311.317
0.356,41.093,2.813,2.804,308.735,277.977,311.439
0.357,41.246,2.832,2.818,308.695,277.938,311.581
0.358,41.422,2.859,2.841,308.652,277.876,311.741
0.359,41.622,2.896,2.875,308.609,277.788,311.914
0.360,41.845,2.943,2.922,308.568,277.668,312.098
0.361,42.094,3.000,2.982,308.531,277.511,312.288
0.363,42.372,3.068,3.057,308.501,277.314,312.482
0.364,42.682,3.148,3.150,308.478,277.073,312.676
0.365,43.019,3.240,3.259,308.465,276.795,312.866
0.366,43.373,3.341,3.381,308.462,276.492,313.049
0.367,43.733,3.447,3.510,308.468,276.176,313.221
0.368,44.091,3.555,3.643,308.484,275.856,313.379
0.370,44.433,3.663,3.774,308.510,275.544,313.520
0.371,44.751,3.767,3.898,308.546,275.253,313.640
0.372,45.032,3.863,4.010,308.594,274.992,313.735
0.373,45.269,3.949,4.106,308.652,274.773,313.802
0.374,45.459,4.022,4.180,308.719,274.599,313.842
0.375,45.612,4.080,4.231,308.788,274.463,313.858
0.376,45.735,4.125,4.263,308.851,274.358,313.856
0.378,45.833,4.158,4.277,308.903,274.276,313.842
0.379,45.912,4.181,4.278,308.937,274.209,313.820
0.380,45.977,4.196,4.269,308.945,274.149,313.795
0.381,46.046,4.204,4.254,308.921,274.088,313.773
0.382,46.141,4.208,4.235,308.857,274.018,313.758
0.383,46.278,4.209,4.216,308.750,273.934,313.756
0.385,46.452,4.208,4.200,308.606,273.837,313.764
0.386,46.654,4.207,4.189,308.434,273.731,313.781
0.387,46.873,4.206,4.181,308.246,273.622,313.804
0.388,47.096,4.204,4.177,308.053,273.515,313.830
0.389,47.312,4.201,4.175,307.864,273.413,313.857
0.390,47.509,4.197,4.176,307.690,273.323,313.883
0.391,47.676,4.193,4.179,307.542,273.248,313.904
0.393,47.802,4.187,4.182,307.430,273.193,313.918
0.394,47.882,4.181,4.186,307.357,273.160,313.925
0.395,47.926,4.175,4.190,307.317,273.144,313.926
0.396,47.942,4.168,4.194,307.301,273.142,313.923
0.397,47.949,4.161,4.198,307.303,273.147,313.919
0.398,47.965,4.155,4.202,307.316,273.157,313.915
0.400,47.984,4.150,4.207,307.331,273.167,313.914
0.401,47.996,4.147,4.212,307.342,273.173,313.917
0.402,48.007,4.147,4.217,307.341,273.169,313.927
0.403,48.037,4.149,4.222,307.323,273.153,313.944
0.404,48.087,4.156,4.228,307.288,273.126,313.968
0.405,48.153,4.166,4.235,307.241,273.090,313.996
0.406,48.229,4.179,4.241,307.185,273.046,314.026
0.408,48.311,4.193,4.247,307.125,272.999,314.055
0.409,48.394,4.206,4.250,307.065,272.949,314.081
0.410,48.472,4.218,4.251,307.008,272.900,314.102
0.411,48.541,4.226,4.249,306.958,272.854,314.114
0.412,48.597,4.229,4.242,306.920,272.813,314.117
0.413,48.643,4.227,4.231,306.892,272.777,314.107
0.415,48.687,4.216,4.214,306.867,272.747,314.088
0.416,48.737,4.197,4.191,306.838,272.719,314.058
0.417,48.797,4.170,4.161,306.798,272.694,314.020
0.418,48.876,4.133,4.125,306.739,272.670,313.974
0.419,48.979,4.088,4.080,306.654,272.646,313.921
0.420,49.114,4.035,4.028,306.535,272.620,313.862
0.421,49.288,3.972,3.968,306.376,272.591,313.798
0.423,49.507,3.901,3.899,306.170,272.559,313.730
0.424,49.767,3.822,3.821,305.924,272.524,313.655
0.425,50.059,3.733,3.734,305.646,272.490,313.572
0.426,50.377,3.638,3.640,305.344,272.458,313.477
0.427,50.713,3.540,3.541,305.027,272.432,313.369
0.428,51.060,3.442,3.442,304.704,272.413,313.246
0.430,51.411,3.347,3.347,304.383,272.405,313.104
0.431,51.761,3.258,3.257,304.072,272.408,312.942
0.432,52.106,3.180,3.179,303.781,272.427,312.757
0.433,52.444,3.114,3.113,303.515,272.459,312.552
0.434,52.772,3.065,3.065,303.273,272.503,312.335
0.435,53.085,3.036,3.037,303.056,272.553,312.115
0.436,53.378,3.024,3.027,302.865,272.607,311.899
0.438,53.644,3.027,3.033,302.700,272.659,311.696
0.439,53.877,3.043,3.050,302.561,272.708,311.516
0.440,54.069,3.068,3.076,302.449,272.747,311.365
0.441,54.212,3.099,3.107,302.365,272.775,311.253
0.442,54.302,3.133,3.141,302.306,272.788,311.186
0.443,54.348,3.168,3.173,302.271,272.789,311.156
0.445,54.367,3.201,3.201,302.253,272.782,311.155
0.446,54.387,3.230,3.222,302.249,272.772,311.172
0.447,54.414,3.254,3.238,302.252,272.764,311.197
0.448,54.438,3.274,3.249,302.258,272.761,311.221
0.449,54.452,3.289,3.258,302.262,272.768,311.232
0.450,54.477,3.300,3.266,302.259,272.789,311.222
0.452,54.537,3.308,3.275,302.245,272.829,311.179
0.453,54.637,3.311,3.285,302.216,272.888,311.103
0.454,54.769,3.311,3.299,302.173,272.958,311.000
0.455,54.925,3.308,3.317,302.117,273.034,310.876
0.456,55.096,3.301,3.340,302.049,273.110,310.739
0.457,55.275,3.291,3.365,301.968,273.179,310.594
0.458,55.454,3.276,3.388,301.877,273.234,310.451
0.460,55.628,3.256,3.407,301.775,273.270,310.314
0.461,55.795,3.232,3.419,301.663,273.280,310.191
0.462,55.955,3.202,3.420,301.541,273.259,310.088
0.463,56.117,3.166,3.407,301.412,273.209,310.004
0.464,56.287,3.123,3.377,301.275,273.134,309.938
0.465,56.467,3.074,3.328,301.133,273.037,309.886
0.467,56.657,3.020,3.261,300.987,272.922,309.846
0.468,56.857,2.961,3.179,300.837,272.793,309.818
0.469,57.065,2.900,3.088,300.685,272.653,309.797
0.470,57.277,2.837,2.991,300.533,272.505,309.783
