"T","Distance","Radius","FreeRadius","X","Y","Z"
0.000,0.000,1.354,1.354,319.197,298.630,303.020
0.001,0.075,1.369,1.369,319.123,298.644,303.015
0.002,0.149,1.384,1.384,319.051,298.658,303.011
0.003,0.220,1.398,1.398,318.981,298.671,303.006
0.005,0.288,1.412,1.412,318.914,298.684,303.000
0.006,0.352,1.426,1.426,318.852,298.695,302.994
0.007,0.410,1.438,1.438,318.795,298.705,302.988
0.008,0.462,1.450,1.450,318.744,298.713,302.980
0.009,0.506,1.461,1.461,318.702,298.719,302.972
0.010,0.541,1.471,1.471,318.668,298.723,302.963
0.011,0.568,1.480,1.480,318.643,298.725,302.952
0.012,0.587,1.487,1.487,318.627,298.725,302.942
0.014,0.601,1.492,1.492,318.617,298.724,302.933
0.015,0.610,1.496,1.496,318.610,298.724,302.926
0.016,0.618,1.498,1.498,318.602,298.725,302.925
0.017,0.631,1.497,1.497,318.591,298.729,302.930
0.018,0.654,1.495,1.495,318.574,298.737,302.943
0.019,0.691,1.490,1.490,318.548,298.750,302.966
0.020,0.746,1.482,1.482,318.510,298.769,303.001
0.021,0.822,1.472,1.472,318.457,298.796,303.048
0.023,0.920,1.459,1.459,318.388,298.830,303.109
0.024,1.037,1.446,1.446,318.305,298.871,303.181
0.025,1.169,1.432,1.432,318.212,298.917,303.262
0.026,1.311,1.419,1.419,318.112,298.967,303.350
0.027,1.460,1.407,1.407,318.006,299.019,303.441
0.028,1.610,1.398,1.398,317.900,299.072,303.533
0.029,1.759,1.391,1.391,317.795,299.124,303.624
0.031,1.900,1.387,1.387,317.694,299.174,303.710
0.032,2.032,1.388,1.388,317.601,299.221,303.790
0.033,2.148,1.394,1.394,317.518,299.262,303.862
0.034,2.253,1.403,1.403,317.445,299.299,303.926
0.035,2.348,1.417,1.417,317.381,299.334,303.987
0.036,2.439,1.436,1.436,317.322,299.367,304.048
0.037,2.529,1.460,1.460,317.268,299.400,304.111
0.038,2.623,1.488,1.488,317.216,299.434,304.182
0.040,2.726,1.521,1.521,317.164,299.471,304.263
0.041,2.841,1.558,1.558,317.112,299.513,304.357
0.042,2.974,1.601,1.601,317.056,299.560,304.468
0.043,3.129,1.648,1.648,316.996,299.614,304.600
0.044,3.305,1.698,1.698,316.930,299.675,304.752
0.045,3.498,1.752,1.752,316.861,299.742,304.919
0.046,3.702,1.809,1.809,316.790,299.813,305.096
0.048,3.911,1.869,1.869,316.719,299.886,305.279
0.049,4.119,1.931,1.931,316.650,299.959,305.461
0.050,4.320,1.994,1.994,316.585,300.031,305.638
0.051,4.510,2.059,2.059,316.525,300.100,305.804
0.052,4.682,2.124,2.124,316.473,300.165,305.954
0.053,4.830,2.188,2.188,316.429,300.222,306.084
0.054,4.951,2.250,2.250,316.396,300.272,306.189
0.055,5.045,2.307,2.307,316.372,300.314,306.270
0.057,5.116,2.359,2.359,316.357,300.349,306.330
0.058,5.168,2.404,2.404,316.347,300.377,306.371
0.059,5.202,2.441,2.441,316.343,300.399,306.397
0.060,5.222,2.467,2.467,316.342,300.416,306.409
0.061,5.234,2.482,2.482,316.344,300.427,306.411
0.062,5.244,2.486,2.486,316.345,300.435,306.405
0.063,5.257,2.481,2.481,316.346,300.438,306.392
0.064,5.272,2.470,2.470,316.344,300.438,306.377
0.066,5.288,2.454,2.454,316.340,300.437,306.361
0.067,5.305,2.436,2.436,316.334,300.436,306.346
0.068,5.319,2.418,2.418,316.328,300.438,306.334
0.069,5.332,2.402,2.402,316.322,300.446,306.325
0.070,5.349,2.392,2.392,316.317,300.462,306.323
0.071,5.376,2.389,2.389,316.315,300.489,306.328
0.072,5.418,2.393,2.393,316.315,300.528,306.342
0.074,5.479,2.403,2.403,316.320,300.583,306.367
0.075,5.561,2.419,2.419,316.330,300.655,306.405
0.076,5.666,2.438,2.438,316.346,300.746,306.456
0.077,5.790,2.460,2.460,316.367,300.851,306.520
0.078,5.928,2.482,2.482,316.394,300.964,306.593
0.079,6.076,2.505,2.505,316.425,301.083,306.675
0.080,6.227,2.525,2.525,316.460,301.200,306.764
0.081,6.378,2.543,2.543,316.500,301.312,306.858
0.083,6.525,2.558,2.558,316.542,301.414,306.954
0.084,6.664,2.570,2.570,316.588,301.501,307.052
0.085,6.792,2.581,2.581,316.637,301.568,307.150
0.086,6.908,2.591,2.591,316.688,301.611,307.245
0.087,7.015,2.601,2.601,316.740,301.630,307.337
0.088,7.117,2.612,2.612,316.792,301.630,307.425
0.089,7.216,2.624,2.624,316.842,301.613,307.508
0.090,7.311,2.639,2.639,316.890,301.583,307.584
0.092,7.402,2.657,2.657,316.935,301.544,307.654
0.093,7.488,2.677,2.677,316.973,301.500,307.716
0.094,7.567,2.699,2.699,317.006,301.452,307.770
0.095,7.636,2.723,2.723,317.031,301.406,307.814
0.096,7.691,2.746,2.746,317.047,301.365,307.848
0.097,7.735,2.768,2.768,317.054,301.330,307.872
0.098,7.767,2.789,2.789,317.055,301.302,307.889
0.100,7.792,2.807,2.807,317.052,301.281,307.903
0.101,7.810,2.821,2.821,317.047,301.268,307.915
0.102,7.825,2.831,2.831,317.045,301.263,307.928
0.103,7.844,2.837,2.837,317.046,301.266,307.947
0.104,7.873,2.840,2.840,317.054,301.277,307.973
0.105,7.917,2.840,2.840,317.070,301.297,308.009
0.106,7.981,2.839,2.839,317.099,301.325,308.059
0.107,8.067,2.837,2.837,317.141,301.362,308.123
0.109,8.171,2.835,2.835,317.194,301.405,308.201
0.110,8.289,2.834,2.834,317.257,301.454,308.289
0.111,8.416,2.835,2.835,317.325,301.504,308.383
0.112,8.546,2.838,2.838,317.397,301.555,308.480
0.113,8.676,2.845,2.845,317.468,301.604,308.577
0.114,8.801,2.853,2.853,317.538,301.649,308.669
0.115,8.914,2.863,2.863,317.602,301.688,308.755
0.117,9.012,2.873,2.873,317.658,301.718,308.829
0.118,9.091,2.885,2.885,317.703,301.738,308.891
0.119,9.149,2.897,2.897,317.737,301.747,308.937
0.120,9.191,2.908,2.908,317.761,301.747,308.972
0.121,9.221,2.919,2.919,317.777,301.741,308.996
0.122,9.242,2.928,2.928,317.786,301.731,309.012
0.123,9.260,2.937,2.937,317.789,301.717,309.023
0.124,9.275,2.944,2.944,317.789,301.703,309.029
0.126,9.289,2.950,2.950,317.787,301.691,309.034
0.127,9.299,2.956,2.956,317.784,301.681,309.038
0.128,9.308,2.960,2.960,317.781,301.678,309.045
0.129,9.319,2.964,2.964,317.780,301.680,309.057
0.130,9.338,2.968,2.968,317.782,301.690,309.072
0.131,9.363,2.971,2.971,317.787,301.704,309.092
0.132,9.396,2.974,2.974,317.794,301.724,309.118
0.133,9.436,2.978,2.978,317.805,301.748,309.148
0.135,9.483,2.981,2.981,317.819,301.775,309.184
0.136,9.538,2.985,2.985,317.837,301.805,309.226
0.137,9.600,2.991,2.991,317.859,301.838,309.274
0.138,9.670,2.997,2.997,317.886,301.871,309.329
0.139,9.746,3.005,3.005,317.917,301.906,309.390
0.140,9.830,3.015,3.015,317.952,301.942,309.456
0.141,9.919,3.028,3.028,317.992,301.978,309.528
0.143,10.013,3.042,3.042,318.034,302.016,309.603
0.144,10.110,3.059,3.059,318.078,302.054,309.680
0.145,10.210,3.078,3.078,318.124,302.095,309.759
0.146,10.311,3.098,3.098,318.171,302.137,309.837
0.147,10.412,3.118,3.118,318.218,302.182,309.915
0.148,10.511,3.140,3.140,318.265,302.228,309.990
0.149,10.609,3.161,3.161,318.311,302.277,310.061
0.150,10.704,3.182,3.182,318.354,302.328,310.128
0.152,10.796,3.202,3.202,318.396,302.380,310.190
0.153,10.882,3.221,3.221,318.436,302.432,310.248
0.154,10.963,3.238,3.238,318.472,302.482,310.299
0.155,11.037,3.254,3.254,318.506,302.530,310.346
0.156,11.104,3.268,3.268,318.536,302.573,310.386
0.157,11.161,3.280,3.280,318.562,302.611,310.420
0.158,11.208,3.290,3.290,318.583,302.643,310.447
0.160,11.244,3.297,3.297,318.601,302.667,310.467
0.161,11.268,3.302,3.302,318.613,302.683,310.480
0.162,11.282,3.304,3.304,318.621,302.691,310.488
0.163,11.287,3.303,3.303,318.625,302.694,310.490
0.164,11.290,3.299,3.299,318.626,302.692,310.488
0.165,11.296,3.295,3.295,318.624,302.687,310.485
0.166,11.305,3.290,3.290,318.621,302.680,310.480
0.167,11.314,3.286,3.286,318.616,302.674,310.475
0.169,11.322,3.283,3.283,318.610,302.670,310.471
0.170,11.327,3.283,3.283,318.605,302.670,310.470
0.171,11.334,3.286,3.286,318.600,302.674,310.473
0.172,11.347,3.293,3.293,318.596,302.683,310.480
0.173,11.364,3.305,3.305,318.595,302.696,310.492
0.174,11.388,3.319,3.319,318.596,302.712,310.509
0.175,11.417,3.334,3.334,318.601,302.731,310.531
0.176,11.451,3.348,3.348,318.611,302.750,310.557
0.178,11.491,3.360,3.360,318.627,302.769,310.589
0.179,11.538,3.368,3.368,318.648,302.787,310.627
0.180,11.592,3.370,3.370,318.677,302.802,310.669
0.181,11.654,3.365,3.365,318.714,302.815,310.718
0.182,11.726,3.350,3.350,318.760,302.823,310.773
0.183,11.810,3.326,3.326,318.816,302.826,310.835
0.184,11.909,3.295,3.295,318.885,302.823,310.907
0.186,12.025,3.261,3.261,318.966,302.814,310.989
0.187,12.162,3.226,3.226,319.062,302.797,311.085
0.188,12.321,3.194,3.194,319.174,302.771,311.194
0.189,12.505,3.168,3.168,319.304,302.736,311.320
0.190,12.716,3.150,3.150,319.453,302.691,311.463
0.191,12.958,3.145,3.145,319.622,302.636,311.626
0.192,13.231,3.155,3.155,319.813,302.568,311.809
0.193,13.531,3.180,3.180,320.023,302.490,312.009
0.195,13.850,3.219,3.219,320.247,302.403,312.219
0.196,14.180,3.269,3.269,320.481,302.309,312.432
0.197,14.513,3.325,3.325,320.720,302.208,312.641
0.198,14.842,3.387,3.387,320.959,302.104,312.841
0.199,15.158,3.450,3.450,321.195,301.998,313.024
0.200,15.455,3.512,3.512,321.421,301.891,313.183
0.201,15.726,3.571,3.571,321.634,301.786,313.312
0.202,15.965,3.622,3.622,321.830,301.683,313.405
0.204,16.173,3.666,3.666,322.004,301.584,313.460
0.205,16.357,3.703,3.703,322.158,301.488,313.488
0.206,16.521,3.737,3.737,322.293,301.395,313.499
0.207,16.669,3.767,3.767,322.409,301.303,313.503
0.208,16.801,3.797,3.797,322.506,301.214,313.510
0.209,16.922,3.827,3.827,322.586,301.125,313.531
0.210,17.040,3.859,3.859,322.650,301.037,313.576
0.212,17.168,3.896,3.896,322.697,300.949,313.656
0.213,17.325,3.939,3.939,322.728,300.859,313.781
0.214,17.525,3.987,3.987,322.745,300.769,313.958
0.215,17.766,4.039,4.039,322.749,300.677,314.181
0.216,18.040,4.094,4.094,322.743,300.583,314.439
0.217,18.336,4.149,4.149,322.729,300.487,314.719
0.218,18.645,4.203,4.203,322.708,300.389,315.010
0.219,18.954,4.255,4.255,322.685,300.288,315.301
0.221,19.253,4.302,4.302,322.660,300.185,315.581
0.222,19.531,4.343,4.343,322.636,300.079,315.837
0.223,19.779,4.377,4.377,322.615,299.970,316.059
0.224,19.989,4.402,4.402,322.599,299.857,316.235
0.225,20.161,4.420,4.420,322.590,299.742,316.363
0.226,20.306,4.432,4.432,322.587,299.627,316.450
0.227,20.432,4.439,4.439,322.590,299.512,316.502
0.229,20.547,4.441,4.441,322.598,299.400,316.527
0.230,20.655,4.440,4.440,322.610,299.292,316.531
0.231,20.759,4.436,4.436,322.628,299.191,316.520
0.232,20.856,4.430,4.430,322.649,299.097,316.503
0.233,20.945,4.424,4.424,322.673,299.013,316.485
0.234,21.023,4.418,4.418,322.701,298.941,316.474
0.235,21.091,4.413,4.413,322.732,298.881,316.475
0.236,21.151,4.409,4.409,322.764,298.831,316.486
0.238,21.208,4.408,4.408,322.797,298.789,316.506
0.239,21.264,4.409,4.409,322.829,298.752,316.533
0.240,21.321,4.414,4.414,322.860,298.719,316.566
0.241,21.377,4.423,4.423,322.889,298.686,316.602
0.242,21.435,4.437,4.437,322.914,298.651,316.640
0.243,21.493,4.457,4.457,322.935,298.611,316.678
0.244,21.554,4.479,4.479,322.950,298.565,316.714
0.245,21.618,4.500,4.500,322.959,298.511,316.747
0.247,21.685,4.514,4.514,322.966,298.451,316.777
0.248,21.751,4.517,4.517,322.978,298.393,316.806
0.249,21.813,4.505,4.505,323.003,298.345,316.837
0.250,21.878,4.473,4.473,323.048,298.313,316.870
0.251,21.959,4.416,4.416,323.119,298.305,316.909
0.252,22.076,4.330,4.330,323.224,298.327,316.955
0.253,22.244,4.211,4.211,323.371,298.386,317.009
0.255,22.474,4.064,4.064,323.566,298.490,317.075
0.256,22.779,3.895,3.895,323.816,298.646,317.154
0.257,23.160,3.714,3.714,324.121,298.855,317.245
0.258,23.598,3.528,3.528,324.467,299.104,317.346
0.259,24.075,3.344,3.344,324.838,299.383,317.454
0.260,24.571,3.172,3.172,325.220,299.678,317.566
0.261,25.066,3.018,3.018,325.598,299.980,317.677
0.262,25.541,2.891,2.891,325.955,300.274,317.785
0.264,25.977,2.797,2.797,326.277,300.550,317.886
0.265,26.355,2.734,2.734,326.549,300.795,317.977
0.266,26.654,2.698,2.698,326.755,300.998,318.055
0.267,26.862,2.683,2.683,326.884,301.148,318.116
0.268,26.989,2.684,2.684,326.946,301.250,318.162
0.269,27.059,2.696,2.696,326.957,301.312,318.191
0.270,27.100,2.713,2.713,326.933,301.343,318.206
0.271,27.143,2.731,2.731,326.891,301.351,318.206
0.273,27.189,2.745,2.745,326.848,301.344,318.194
0.274,27.229,2.749,2.749,326.819,301.332,318.168
0.275,27.268,2.743,2.743,326.823,301.321,318.131
0.276,27.338,2.730,2.730,326.874,301.322,318.083
0.277,27.469,2.709,2.709,326.989,301.342,318.024
0.278,27.666,2.681,2.681,327.169,301.383,317.957
0.279,27.917,2.648,2.648,327.403,301.440,317.882
0.281,28.208,2.611,2.611,327.675,301.507,317.804
0.282,28.525,2.571,2.571,327.972,301.579,317.723
0.283,28.853,2.529,2.529,328.282,301.652,317.643
0.284,29.177,2.485,2.485,328.589,301.719,317.565
0.285,29.483,2.441,2.441,328.881,301.775,317.491
0.286,29.757,2.397,2.397,329.144,301.815,317.425
0.287,29.985,2.354,2.354,329.363,301.834,317.367
0.288,30.159,2.313,2.313,329.531,301.829,317.320
0.290,30.288,2.275,2.275,329.652,301.800,317.283
0.291,30.387,2.241,2.241,329.732,301.752,317.253
0.292,30.471,2.211,2.211,329.781,301.688,317.230
0.293,30.554,2.186,2.186,329.804,301.610,317.212
0.294,30.644,2.167,2.167,329.810,301.522,317.198
0.295,30.740,2.153,2.153,329.806,301.426,317.185
0.296,30.840,2.143,2.143,329.799,301.327,317.173
0.298,30.941,2.136,2.136,329.798,301.227,317.160
0.299,31.041,2.131,2.131,329.808,301.128,317.144
0.300,31.140,2.127,2.127,329.830,301.034,317.126
0.301,31.237,2.123,2.123,329.863,300.945,317.107
0.302,31.331,2.118,2.118,329.903,300.863,317.086
0.303,31.421,2.112,2.112,329.948,300.787,317.064
0.304,31.505,2.103,2.103,329.994,300.721,317.043
0.305,31.580,2.092,2.092,330.039,300.664,317.022
0.307,31.645,2.080,2.080,330.080,300.617,317.004
0.308,31.696,2.065,2.065,330.114,300.583,316.987
0.309,31.731,2.050,2.050,330.138,300.562,316.973
0.310,31.750,2.033,2.033,330.153,300.554,316.963
0.311,31.761,2.016,2.016,330.160,300.554,316.956
0.312,31.768,1.998,1.998,330.164,300.558,316.952
0.313,31.774,1.981,1.981,330.169,300.562,316.950
0.314,31.782,1.964,1.964,330.177,300.562,316.950
0.316,31.800,1.948,1.948,330.192,300.553,316.952
0.317,31.834,1.932,1.932,330.218,300.531,316.956
0.318,31.891,1.918,1.918,330.258,300.492,316.962
0.319,31.976,1.905,1.905,330.317,300.431,316.968
0.320,32.093,1.895,1.895,330.396,300.345,316.976
0.321,32.238,1.886,1.886,330.494,300.238,316.983
0.322,32.404,1.879,1.879,330.605,300.115,316.991
0.324,32.583,1.875,1.875,330.725,299.982,316.998
0.325,32.769,1.874,1.874,330.849,299.844,317.005
0.326,32.954,1.874,1.874,330.974,299.707,317.010
0.327,33.131,1.877,1.877,331.093,299.576,317.014
0.328,33.293,1.880,1.880,331.204,299.458,317.015
0.329,33.433,1.884,1.884,331.300,299.357,317.014
0.330,33.543,1.887,1.887,331.379,299.280,317.010
0.331,33.624,1.891,1.891,331.438,299.226,317.003
0.333,33.679,1.893,1.893,331.481,299.192,316.994
0.334,33.715,1.893,1.893,331.510,299.173,316.983
0.335,33.738,1.891,1.891,331.527,299.164,316.971
0.336,33.753,1.888,1.888,331.535,299.160,316.959
0.337,33.765,1.884,1.884,331.538,299.156,316.948
0.338,33.778,1.879,1.879,331.537,299.149,316.937
0.339,33.797,1.873,1.873,331.536,299.133,316.928
0.340,33.827,1.867,1.867,331.537,299.104,316.922
0.342,33.873,1.861,1.861,331.543,299.057,316.918
0.343,33.934,1.856,1.856,331.552,298.997,316.917
0.344,34.006,1.851,1.851,331.566,298.927,316.917
0.345,34.086,1.848,1.848,331.583,298.849,316.919
0.346,34.169,1.846,1.846,331.604,298.768,316.922
0.347,34.254,1.844,1.844,331.628,298.688,316.925
0.348,34.335,1.844,1.844,331.655,298.611,316.928
0.350,34.411,1.844,1.844,331.685,298.541,316.930
0.351,34.477,1.846,1.846,331.716,298.482,316.931
0.352,34.533,1.848,1.848,331.750,298.438,316.930
0.353,34.581,1.852,1.852,331.786,298.407,316.928
0.354,34.624,1.856,1.856,331.825,298.388,316.924
0.355,34.669,1.861,1.861,331.869,298.378,316.919
0.356,34.718,1.866,1.866,331.917,298.373,316.913
0.357,34.772,1.869,1.869,331.971,298.373,316.907
0.359,34.833,1.870,1.870,332.031,298.373,316.901
0.360,34.901,1.869,1.869,332.099,298.371,316.896
0.361,34.978,1.863,1.863,332.175,298.365,316.891
0.362,35.064,1.854,1.854,332.260,298.352,316.886
0.363,35.161,1.838,1.838,332.355,298.329,316.885
0.364,35.272,1.817,1.817,332.461,298.297,316.888
0.365,35.397,1.790,1.790,332.578,298.254,316.901
0.367,35.540,1.762,1.762,332.707,298.199,316.927
0.368,35.702,1.736,1.736,332.849,298.132,316.969
0.369,35.888,1.714,1.714,333.005,298.052,317.030
0.370,36.100,1.701,1.701,333.175,297.957,317.115
0.371,36.342,1.698,1.698,333.360,297.848,317.226
0.372,36.619,1.710,1.710,333.562,297.723,317.367
0.373,36.931,1.740,1.740,333.780,297.582,317.541
0.374,37.273,1.790,1.790,334.009,297.426,317.742
0.376,37.635,1.860,1.860,334.243,297.260,317.962
0.377,38.006,1.945,1.945,334.475,297.085,318.193
0.378,38.377,2.043,2.043,334.700,296.905,318.426
0.379,38.736,2.148,2.148,334.909,296.723,318.655
0.380,39.075,2.256,2.256,335.098,296.541,318.869
0.381,39.382,2.365,2.365,335.258,296.363,319.062
0.382,39.650,2.470,2.470,335.385,296.192,319.225
0.383,39.872,2.567,2.567,335.471,296.030,319.349
0.385,40.051,2.651,2.651,335.518,295.880,319.433
0.386,40.197,2.722,2.722,335.537,295.742,319.480
0.387,40.321,2.779,2.779,335.538,295.619,319.491
0.388,40.431,2.820,2.820,335.533,295.510,319.473
0.389,40.533,2.844,2.844,335.533,295.419,319.426
0.390,40.636,2.851,2.851,335.548,295.345,319.356
0.391,40.750,2.840,2.840,335.590,295.290,319.266
0.393,40.889,2.810,2.810,335.669,295.255,319.158
0.394,41.066,2.759,2.759,335.797,295.241,319.037
0.395,41.292,2.689,2.689,335.981,295.249,318.906
0.396,41.563,2.601,2.601,336.213,295.277,318.767
0.397,41.871,2.500,2.500,336.482,295.321,318.625
0.398,42.204,2.391,2.391,336.777,295.379,318.481
0.399,42.553,2.280,2.280,337.088,295.448,318.339
0.400,42.905,2.170,2.170,337.403,295.525,318.201
0.402,43.251,2.066,2.066,337.712,295.608,318.072
0.403,43.577,1.973,1.973,338.005,295.693,317.953
0.404,43.874,1.896,1.896,338.269,295.777,317.847
0.405,44.131,1.839,1.839,338.495,295.858,317.758
0.406,44.346,1.801,1.801,338.682,295.935,317.685
0.407,44.525,1.780,1.780,338.835,296.008,317.625
0.408,44.675,1.773,1.773,338.959,296.077,317.576
0.410,44.801,1.778,1.778,339.059,296.142,317.535
0.411,44.909,1.791,1.791,339.140,296.203,317.499
0.412,45.004,1.810,1.810,339.207,296.261,317.466
0.413,45.090,1.833,1.833,339.265,296.316,317.432
0.414,45.173,1.857,1.857,339.320,296.367,317.396
0.415,45.258,1.879,1.879,339.376,296.415,317.355
0.416,45.347,1.900,1.900,339.436,296.460,317.307
0.417,45.440,1.919,1.919,339.500,296.501,317.254
0.419,45.533,1.936,1.936,339.564,296.540,317.198
0.420,45.626,1.951,1.951,339.628,296.574,317.141
0.421,45.714,1.965,1.965,339.690,296.606,317.085
0.422,45.797,1.978,1.978,339.746,296.633,317.032
0.423,45.871,1.989,1.989,339.797,296.657,316.983
0.424,45.933,1.998,1.998,339.839,296.677,316.942
0.425,45.982,2.007,2.007,339.871,296.693,316.909
0.426,46.014,2.014,2.014,339.892,296.704,316.887
0.428,46.032,2.020,2.020,339.902,296.712,316.874
0.429,46.040,2.025,2.025,339.904,296.717,316.869
0.430,46.044,2.028,2.028,339.900,296.719,316.870
0.431,46.052,2.029,2.029,339.894,296.718,316.874
0.432,46.062,2.029,2.029,339.886,296.716,316.881
0.433,46.072,2.027,2.027,339.880,296.713,316.888
0.434,46.080,2.024,2.024,339.877,296.709,316.894
0.436,46.086,2.019,2.019,339.881,296.705,316.896
0.437,46.099,2.012,2.012,339.893,296.701,316.893
0.438,46.122,2.004,2.004,339.915,296.698,316.884
0.439,46.154,1.995,1.995,339.944,296.697,316.872
0.440,46.194,1.985,1.985,339.981,296.697,316.856
0.441,46.240,1.975,1.975,340.024,296.699,316.839
0.442,46.291,1.965,1.965,340.072,296.704,316.823
0.443,46.345,1.956,1.956,340.123,296.712,316.809
0.445,46.402,1.946,1.946,340.178,296.723,316.798
0.446,46.460,1.937,1.937,340.233,296.739,316.792
0.447,46.519,1.928,1.928,340.289,296.759,316.792
0.448,46.581,1.918,1.918,340.346,296.783,316.800
0.449,46.645,1.906,1.906,340.404,296.808,316.812
0.450,46.714,1.892,1.892,340.467,296.831,316.827
0.451,46.789,1.873,1.873,340.539,296.849,316.839
0.452,46.872,1.850,1.850,340.621,296.857,316.848
0.454,46.968,1.822,1.822,340.717,296.853,316.849
0.455,47.083,1.788,1.788,340.829,296.833,316.840
0.456,47.222,1.747,1.747,340.961,296.793,316.817
0.457,47.393,1.703,1.703,341.115,296.730,316.777
0.458,47.601,1.656,1.656,341.294,296.642,316.719
0.459,47.845,1.609,1.609,341.495,296.529,316.643
0.460,48.114,1.566,1.566,341.714,296.397,316.555
0.462,48.401,1.527,1.527,341.943,296.252,316.460
