"T","Distance","Radius","FreeRadius","X","Y","Z"
0.000,0.000,0.860,0.860,239.130,227.965,241.288
0.002,0.227,0.918,0.918,239.059,228.099,241.118
0.003,0.452,0.974,0.974,238.987,228.231,240.951
0.005,0.673,1.029,1.029,238.915,228.361,240.788
0.006,0.887,1.081,1.081,238.843,228.488,240.630
0.008,1.093,1.128,1.128,238.770,228.610,240.481
0.010,1.289,1.171,1.171,238.697,228.726,240.342
0.011,1.472,1.208,1.208,238.623,228.836,240.215
0.013,1.642,1.239,1.239,238.549,228.937,240.102
0.014,1.795,1.265,1.265,238.473,229.030,240.005
0.016,1.933,1.289,1.289,238.397,229.113,239.927
0.018,2.053,1.311,1.311,238.319,229.184,239.868
0.019,2.161,1.331,1.331,238.241,229.246,239.828
0.021,2.259,1.353,1.353,238.162,229.300,239.804
0.022,2.353,1.375,1.375,238.083,229.348,239.794
0.024,2.445,1.398,1.398,238.003,229.394,239.794
0.026,2.538,1.421,1.421,237.923,229.440,239.804
0.027,2.631,1.444,1.444,237.843,229.487,239.819
0.029,2.728,1.465,1.465,237.764,229.538,239.838
0.030,2.827,1.486,1.486,237.685,229.595,239.857
0.032,2.931,1.505,1.505,237.607,229.662,239.875
0.034,3.042,1.523,1.523,237.529,229.739,239.888
0.035,3.158,1.543,1.543,237.454,229.827,239.897
0.037,3.278,1.566,1.566,237.381,229.923,239.900
0.038,3.400,1.593,1.593,237.312,230.024,239.900
0.040,3.521,1.626,1.626,237.249,230.126,239.896
0.042,3.637,1.666,1.666,237.191,230.227,239.890
0.043,3.746,1.711,1.711,237.141,230.323,239.882
0.045,3.844,1.758,1.758,237.100,230.412,239.873
0.046,3.929,1.804,1.804,237.068,230.490,239.864
0.048,3.998,1.844,1.844,237.047,230.555,239.854
0.050,4.047,1.875,1.875,237.038,230.603,239.846
0.051,4.078,1.894,1.894,237.041,230.633,239.840
0.053,4.097,1.900,1.900,237.053,230.647,239.834
0.054,4.114,1.896,1.896,237.069,230.650,239.830
0.056,4.133,1.885,1.885,237.086,230.645,239.828
0.058,4.151,1.869,1.869,237.101,230.634,239.826
0.059,4.167,1.854,1.854,237.109,230.620,239.826
0.061,4.179,1.841,1.841,237.108,230.608,239.827
0.062,4.196,1.833,1.833,237.092,230.600,239.828
0.064,4.229,1.831,1.831,237.060,230.600,239.831
0.065,4.284,1.835,1.835,237.006,230.611,239.834
0.067,4.365,1.844,1.844,236.929,230.635,239.838
0.069,4.469,1.860,1.860,236.831,230.671,239.842
0.070,4.591,1.881,1.881,236.718,230.717,239.846
0.072,4.726,1.907,1.907,236.594,230.770,239.849
0.073,4.868,1.938,1.938,236.465,230.829,239.852
0.075,5.012,1.972,1.972,236.335,230.890,239.854
0.077,5.152,2.007,2.007,236.209,230.952,239.854
0.078,5.284,2.040,2.040,236.092,231.012,239.852
0.080,5.401,2.071,2.071,235.988,231.068,239.847
0.081,5.500,2.097,2.097,235.904,231.118,239.840
0.083,5.575,2.117,2.117,235.842,231.159,239.830
0.085,5.627,2.133,2.133,235.802,231.190,239.818
0.086,5.662,2.143,2.143,235.778,231.212,239.803
0.088,5.685,2.149,2.149,235.767,231.224,239.787
0.089,5.702,2.152,2.152,235.762,231.225,239.771
0.091,5.721,2.150,2.150,235.759,231.216,239.755
0.093,5.746,2.146,2.146,235.753,231.197,239.741
0.094,5.781,2.138,2.138,235.739,231.166,239.728
0.096,5.832,2.127,2.127,235.713,231.125,239.717
0.097,5.901,2.110,2.110,235.668,231.072,239.710
0.099,5.994,2.089,2.089,235.601,231.008,239.708
0.101,6.111,2.062,2.062,235.511,230.934,239.709
0.102,6.248,2.030,2.030,235.401,230.852,239.714
0.104,6.400,1.993,1.993,235.276,230.766,239.722
0.105,6.562,1.955,1.955,235.140,230.679,239.733
0.107,6.729,1.919,1.919,234.998,230.593,239.746
0.109,6.895,1.887,1.887,234.853,230.512,239.760
0.110,7.057,1.862,1.862,234.709,230.439,239.776
0.112,7.208,1.847,1.847,234.573,230.377,239.792
0.113,7.344,1.843,1.843,234.446,230.329,239.807
0.115,7.461,1.846,1.846,234.334,230.297,239.823
0.117,7.558,1.854,1.854,234.240,230.284,239.836
0.118,7.640,1.865,1.865,234.159,230.286,239.849
0.120,7.711,1.877,1.877,234.090,230.299,239.860
0.121,7.778,1.887,1.887,234.028,230.321,239.868
0.123,7.841,1.893,1.893,233.970,230.347,239.874
0.125,7.905,1.897,1.897,233.912,230.374,239.877
0.126,7.970,1.898,1.898,233.852,230.399,239.877
0.128,8.039,1.899,1.899,233.786,230.418,239.874
0.129,8.115,1.900,1.900,233.710,230.428,239.867
0.131,8.205,1.903,1.903,233.622,230.424,239.856
0.133,8.312,1.908,1.908,233.518,230.404,239.841
0.134,8.436,1.915,1.915,233.400,230.370,239.822
0.136,8.574,1.924,1.924,233.271,230.325,239.800
0.137,8.723,1.934,1.934,233.135,230.271,239.776
0.139,8.878,1.946,1.946,232.994,230.212,239.750
0.141,9.034,1.958,1.958,232.852,230.149,239.725
0.142,9.189,1.971,1.971,232.713,230.087,239.699
0.144,9.338,1.984,1.984,232.578,230.028,239.675
0.145,9.477,1.997,1.997,232.452,229.976,239.653
0.147,9.602,2.011,2.011,232.337,229.932,239.634
0.149,9.708,2.026,2.026,232.236,229.900,239.619
0.150,9.797,2.042,2.042,232.151,229.879,239.608
0.152,9.870,2.059,2.059,232.079,229.869,239.603
0.153,9.929,2.077,2.077,232.019,229.868,239.605
0.155,9.979,2.094,2.094,231.971,229.874,239.615
0.157,10.023,2.108,2.108,231.933,229.886,239.634
0.158,10.068,2.117,2.117,231.903,229.901,239.664
0.160,10.118,2.119,2.119,231.881,229.919,239.705
0.161,10.178,2.111,2.111,231.865,229.938,239.760
0.163,10.249,2.092,2.092,231.854,229.956,239.828
0.165,10.335,2.064,2.064,231.847,229.972,239.911
0.166,10.433,2.032,2.032,231.841,229.985,240.008
0.168,10.541,1.998,1.998,231.830,229.998,240.115
0.169,10.655,1.967,1.967,231.811,230.013,240.227
0.171,10.774,1.942,1.942,231.777,230.032,240.339
0.173,10.897,1.928,1.928,231.723,230.057,240.447
0.174,11.027,1.926,1.926,231.645,230.090,240.546
0.176,11.172,1.936,1.936,231.537,230.133,240.632
0.177,11.340,1.959,1.959,231.394,230.189,240.699
0.179,11.541,1.996,1.996,231.211,230.259,240.745
0.181,11.786,2.046,2.046,230.983,230.346,240.763
0.182,12.080,2.110,2.110,230.708,230.450,240.752
0.184,12.415,2.187,2.187,230.396,230.569,240.714
0.185,12.781,2.276,2.276,230.059,230.696,240.654
0.187,13.166,2.374,2.374,229.707,230.830,240.575
0.188,13.557,2.478,2.478,229.351,230.964,240.483
0.190,13.942,2.585,2.585,229.004,231.096,240.380
0.192,14.308,2.694,2.694,228.677,231.220,240.272
0.193,14.644,2.802,2.802,228.380,231.333,240.162
0.195,14.938,2.907,2.907,228.126,231.431,240.054
0.196,15.176,3.006,3.006,227.925,231.508,239.953
0.198,15.350,3.098,3.098,227.786,231.563,239.862
0.200,15.468,3.180,3.180,227.705,231.597,239.784
0.201,15.541,3.250,3.250,227.670,231.616,239.722
0.203,15.586,3.307,3.307,227.671,231.624,239.678
0.204,15.622,3.348,3.348,227.698,231.627,239.654
0.206,15.664,3.373,3.373,227.740,231.629,239.652
0.208,15.716,3.381,3.381,227.785,231.636,239.675
0.209,15.781,3.372,3.372,227.824,231.653,239.725
0.211,15.869,3.344,3.344,227.846,231.684,239.804
0.212,15.991,3.298,3.298,227.840,231.735,239.915
0.214,16.160,3.233,3.233,227.796,231.810,240.060
0.216,16.377,3.156,3.156,227.714,231.908,240.235
0.217,16.633,3.075,3.075,227.603,232.027,240.433
0.219,16.917,2.994,2.994,227.471,232.160,240.646
0.220,17.218,2.920,2.920,227.326,232.304,240.867
0.222,17.524,2.861,2.861,227.177,232.453,241.089
0.224,17.823,2.821,2.821,227.033,232.605,241.304
0.225,18.105,2.798,2.798,226.901,232.753,241.504
0.227,18.357,2.787,2.787,226.791,232.893,241.682
0.228,18.570,2.784,2.784,226.711,233.022,241.830
0.230,18.733,2.784,2.784,226.669,233.134,241.942
0.232,18.852,2.783,2.783,226.668,233.229,242.013
0.233,18.947,2.776,2.776,226.702,233.310,242.049
0.235,19.043,2.761,2.761,226.767,233.382,242.053
0.236,19.156,2.737,2.737,226.854,233.449,242.030
0.238,19.289,2.704,2.704,226.959,233.516,241.984
0.240,19.439,2.660,2.660,227.075,233.588,241.921
0.241,19.604,2.607,2.607,227.197,233.668,241.844
0.243,19.778,2.542,2.542,227.316,233.762,241.759
0.244,19.961,2.466,2.466,227.429,233.874,241.669
0.246,20.150,2.384,2.384,227.528,234.008,241.580
0.248,20.348,2.297,2.297,227.609,234.167,241.493
0.249,20.558,2.210,2.210,227.674,234.349,241.409
0.251,20.780,2.125,2.125,227.726,234.547,241.325
0.252,21.013,2.046,2.046,227.768,234.758,241.237
0.254,21.253,1.975,1.975,227.802,234.977,241.144
0.256,21.500,1.914,1.914,227.833,235.201,241.043
0.257,21.750,1.863,1.863,227.862,235.423,240.933
0.259,22.002,1.821,1.821,227.893,235.640,240.810
0.260,22.254,1.790,1.790,227.930,235.848,240.672
0.262,22.506,1.767,1.767,227.974,236.041,240.516
0.264,22.759,1.755,1.755,228.028,236.216,240.342
0.265,23.013,1.753,1.753,228.092,236.372,240.151
0.267,23.267,1.759,1.759,228.162,236.510,239.950
0.268,23.518,1.774,1.774,228.237,236.631,239.743
0.270,23.762,1.796,1.796,228.314,236.736,239.537
0.272,23.996,1.825,1.825,228.390,236.825,239.335
0.273,24.214,1.861,1.861,228.463,236.900,239.143
0.275,24.413,1.901,1.901,228.531,236.961,238.966
0.276,24.586,1.944,1.944,228.589,237.009,238.811
0.278,24.729,1.986,1.986,228.638,237.046,238.681
0.280,24.837,2.026,2.026,228.673,237.072,238.582
0.281,24.911,2.059,2.059,228.694,237.088,238.514
0.283,24.954,2.083,2.083,228.705,237.097,238.472
0.284,24.974,2.097,2.097,228.706,237.100,238.453
0.286,24.980,2.102,2.102,228.701,237.100,238.451
0.288,24.995,2.101,2.101,228.691,237.098,238.462
0.289,25.019,2.097,2.097,228.678,237.097,238.482
0.291,25.046,2.093,2.093,228.664,237.099,238.505
0.292,25.072,2.093,2.093,228.652,237.104,238.528
0.294,25.096,2.099,2.099,228.644,237.117,238.546
0.296,25.118,2.110,2.110,228.641,237.137,238.555
0.297,25.148,2.125,2.125,228.646,237.167,238.551
0.299,25.190,2.139,2.139,228.656,237.205,238.537
0.300,25.243,2.152,2.152,228.673,237.250,238.513
0.302,25.306,2.159,2.159,228.693,237.300,238.482
0.304,25.375,2.159,2.159,228.718,237.354,238.445
0.305,25.451,2.150,2.150,228.746,237.410,238.405
0.307,25.529,2.134,2.134,228.775,237.468,238.361
0.308,25.608,2.114,2.114,228.806,237.526,238.317
0.310,25.686,2.091,2.091,228.838,237.583,238.273
0.312,25.760,2.069,2.069,228.869,237.636,238.232
0.313,25.830,2.049,2.049,228.899,237.687,238.195
0.315,25.895,2.033,2.033,228.927,237.735,238.161
0.316,25.959,2.022,2.022,228.953,237.783,238.129
0.318,26.023,2.015,2.015,228.976,237.835,238.099
0.319,26.089,2.014,2.014,228.995,237.891,238.069
0.321,26.160,2.018,2.018,229.011,237.954,238.039
0.323,26.239,2.027,2.027,229.021,238.026,238.009
0.324,26.329,2.042,2.042,229.026,238.109,237.976
0.326,26.433,2.061,2.061,229.025,238.207,237.941
0.327,26.552,2.086,2.086,229.018,238.320,237.902
0.329,26.691,2.114,2.114,229.003,238.451,237.859
0.331,26.847,2.147,2.147,228.982,238.598,237.813
0.332,27.018,2.182,2.182,228.953,238.760,237.766
0.334,27.201,2.220,2.220,228.919,238.934,237.719
0.335,27.394,2.260,2.260,228.878,239.116,237.674
0.337,27.593,2.302,2.302,228.833,239.306,237.633
0.339,27.796,2.343,2.343,228.781,239.500,237.598
0.340,28.001,2.383,2.383,228.725,239.695,237.571
0.342,28.206,2.422,2.422,228.665,239.889,237.553
0.343,28.407,2.457,2.457,228.600,240.081,237.546
0.345,28.605,2.490,2.490,228.532,240.266,237.553
0.347,28.796,2.518,2.518,228.461,240.443,237.571
0.348,28.979,2.544,2.544,228.388,240.608,237.596
0.350,29.150,2.568,2.568,228.316,240.760,237.625
0.351,29.305,2.589,2.589,228.245,240.896,237.653
0.353,29.442,2.609,2.609,228.177,241.012,237.677
0.355,29.556,2.627,2.627,228.114,241.106,237.690
0.356,29.647,2.643,2.643,228.057,241.176,237.691
0.358,29.715,2.657,2.657,228.008,241.219,237.673
0.359,29.773,2.666,2.666,227.967,241.233,237.633
0.361,29.848,2.670,2.670,227.937,241.213,237.567
0.363,29.957,2.667,2.667,227.918,241.162,237.473
0.364,30.100,2.657,2.657,227.911,241.084,237.353
0.366,30.275,2.639,2.639,227.914,240.986,237.209
0.367,30.474,2.612,2.612,227.927,240.874,237.044
0.369,30.693,2.575,2.575,227.949,240.755,236.862
0.371,30.926,2.528,2.528,227.980,240.635,236.664
0.372,31.168,2.470,2.470,228.020,240.521,236.455
0.374,31.415,2.401,2.401,228.068,240.419,236.235
0.375,31.662,2.321,2.321,228.124,240.335,236.009
0.377,31.908,2.236,2.236,228.187,240.277,235.779
0.379,32.152,2.154,2.154,228.256,240.249,235.547
0.380,32.394,2.081,2.081,228.330,240.250,235.316
0.382,32.636,2.024,2.024,228.410,240.279,235.089
0.383,32.879,1.991,1.991,228.493,240.334,234.868
0.385,33.121,1.987,1.987,228.578,240.411,234.655
0.387,33.362,2.008,2.008,228.666,240.509,234.453
0.388,33.602,2.044,2.044,228.755,240.626,234.263
0.390,33.838,2.086,2.086,228.843,240.759,234.090
0.391,34.070,2.125,2.125,228.931,240.907,233.934
0.393,34.297,2.149,2.149,229.016,241.067,233.799
0.395,34.517,2.150,2.150,229.099,241.238,233.685
0.396,34.732,2.126,2.126,229.179,241.415,233.594
0.398,34.943,2.084,2.084,229.255,241.599,233.523
0.399,35.151,2.033,2.033,229.327,241.786,233.469
0.401,35.354,1.980,1.980,229.396,241.973,233.430
0.403,35.553,1.935,1.935,229.462,242.160,233.405
0.404,35.747,1.905,1.905,229.523,242.342,233.390
0.406,35.933,1.897,1.897,229.580,242.519,233.385
0.407,36.110,1.906,1.906,229.633,242.688,233.386
0.409,36.276,1.929,1.929,229.682,242.847,233.391
0.411,36.429,1.961,1.961,229.726,242.993,233.399
0.412,36.567,1.996,1.996,229.766,243.125,233.409
0.414,36.693,2.029,2.029,229.801,243.245,233.420
0.415,36.806,2.056,2.056,229.832,243.353,233.433
0.417,36.907,2.078,2.078,229.858,243.450,233.449
0.419,36.999,2.094,2.094,229.880,243.537,233.467
0.420,37.081,2.108,2.108,229.898,243.615,233.488
0.422,37.156,2.120,2.120,229.911,243.684,233.513
0.423,37.225,2.133,2.133,229.920,243.746,233.541
0.425,37.289,2.148,2.148,229.925,243.801,233.574
0.427,37.350,2.164,2.164,229.926,243.850,233.611
0.428,37.411,2.181,2.181,229.922,243.894,233.653
0.430,37.472,2.194,2.194,229.916,243.934,233.699
0.431,37.534,2.203,2.203,229.907,243.970,233.748
0.433,37.598,2.204,2.204,229.897,244.004,233.801
0.435,37.663,2.195,2.195,229.887,244.037,233.857
0.436,37.730,2.175,2.175,229.878,244.068,233.915
0.438,37.798,2.147,2.147,229.871,244.100,233.975
0.439,37.868,2.114,2.114,229.867,244.132,234.036
0.441,37.938,2.078,2.078,229.867,244.166,234.099
0.442,38.011,2.043,2.043,229.871,244.202,234.161
0.444,38.086,2.012,2.012,229.881,244.242,234.224
0.446,38.163,1.988,1.988,229.896,244.284,234.286
0.447,38.241,1.971,1.971,229.916,244.329,234.347
0.449,38.319,1.961,1.961,229.941,244.375,234.405
0.450,38.398,1.955,1.955,229.968,244.423,234.461
0.452,38.475,1.955,1.955,229.999,244.471,234.513
0.454,38.551,1.957,1.957,230.033,244.520,234.561
0.455,38.624,1.963,1.963,230.068,244.568,234.604
0.457,38.695,1.970,1.970,230.105,244.615,234.641
0.458,38.761,1.979,1.979,230.142,244.660,234.672
0.460,38.823,1.991,1.991,230.180,244.703,234.696
0.462,38.881,2.004,2.004,230.217,244.744,234.713
0.463,38.933,2.018,2.018,230.253,244.780,234.725
0.465,38.980,2.034,2.034,230.287,244.811,234.731
0.466,39.021,2.051,2.051,230.320,244.836,234.733
0.468,39.055,2.067,2.067,230.350,244.853,234.732
0.470,39.084,2.082,2.082,230.376,244.862,234.728
0.471,39.107,2.094,2.094,230.399,244.862,234.723
0.473,39.129,2.102,2.102,230.417,244.851,234.717
0.474,39.156,2.104,2.104,230.431,244.829,234.711
0.476,39.192,2.100,2.100,230.439,244.793,234.707
0.478,39.238,2.089,2.089,230.442,244.748,234.704
0.479,39.286,2.070,2.070,230.443,244.700,234.702
0.481,39.329,2.045,2.045,230.445,244.657,234.702
0.482,39.361,2.012,2.012,230.449,244.626,234.702
0.484,39.376,1.973,1.973,230.458,244.614,234.704
0.486,39.399,1.926,1.926,230.476,244.630,234.708
0.487,39.457,1.874,1.874,230.503,244.681,234.711
0.489,39.559,1.819,1.819,230.543,244.774,234.716
0.490,39.712,1.764,1.764,230.599,244.917,234.722
0.492,39.926,1.713,1.713,230.673,245.117,234.728
0.494,40.202,1.668,1.668,230.766,245.377,234.734
0.495,40.530,1.633,1.633,230.874,245.687,234.741
0.497,40.896,1.610,1.610,230.993,246.033,234.748
0.498,41.286,1.599,1.599,231.119,246.402,234.754
0.500,41.687,1.598,1.598,231.248,246.781,234.761
0.502,42.084,1.607,1.607,231.375,247.157,234.767
0.503,42.464,1.626,1.626,231.498,247.517,234.773
0.505,42.814,1.653,1.653,231.610,247.848,234.778
0.506,43.119,1.689,1.689,231.708,248.137,234.782
0.508,43.366,1.729,1.729,231.788,248.371,234.785
0.510,43.544,1.772,1.772,231.847,248.539,234.787
0.511,43.657,1.814,1.814,231.885,248.645,234.787
0.513,43.716,1.852,1.852,231.906,248.700,234.787
0.514,43.730,1.883,1.883,231.912,248.713,234.787
0.516,43.751,1.903,1.903,231.907,248.692,234.786
0.518,43.796,1.913,1.913,231.892,248.649,234.785
0.519,43.857,1.915,1.915,231.872,248.592,234.784
0.521,43.922,1.913,1.913,231.848,248.532,234.783
0.522,43.981,1.909,1.909,231.825,248.477,234.783
0.524,44.026,1.907,1.907,231.804,248.437,234.784
0.526,44.048,1.908,1.908,231.788,248.423,234.786
0.527,44.063,1.916,1.916,231.779,248.434,234.789
0.529,44.096,1.929,1.929,231.776,248.467,234.794
0.530,44.148,1.946,1.946,231.778,248.518,234.802
0.532,44.213,1.966,1.966,231.784,248.582,234.813
0.534,44.289,1.988,1.988,231.795,248.655,234.827
0.535,44.370,2.011,2.011,231.810,248.734,234.845
0.537,44.454,2.033,2.033,231.828,248.812,234.868
0.538,44.537,2.055,2.055,231.849,248.887,234.895
0.540,44.615,2.075,2.075,231.872,248.954,234.928
0.542,44.687,2.092,2.092,231.897,249.009,234.967
0.543,44.753,2.107,2.107,231.923,249.049,235.012
0.545,44.815,2.117,2.117,231.950,249.078,235.061
0.546,44.877,2.124,2.124,231.977,249.096,235.113
0.548,44.937,2.126,2.126,232.005,249.105,235.167
0.550,44.997,2.125,2.125,232.032,249.109,235.220
0.551,45.055,2.121,2.122,232.059,249.108,235.271
0.553,45.110,2.116,2.116,232.085,249.105,235.319
0.554,45.160,2.109,2.109,232.109,249.102,235.362
0.556,45.203,2.101,2.101,232.132,249.101,235.399
0.558,45.239,2.094,2.094,232.153,249.104,235.429
0.559,45.269,2.088,2.087,232.172,249.113,235.449
0.561,45.294,2.082,2.082,232.189,249.127,235.462
0.562,45.320,2.079,2.079,232.205,249.146,235.469
0.564,45.348,2.078,2.077,232.219,249.171,235.471
0.565,45.380,2.079,2.079,232.232,249.200,235.469
0.567,45.416,2.084,2.085,232.245,249.233,235.465
0.569,45.456,2.092,2.092,232.258,249.271,235.460
0.570,45.500,2.100,2.101,232.270,249.312,235.456
0.572,45.547,2.109,2.110,232.284,249.357,235.453
0.573,45.597,2.116,2.117,232.298,249.405,235.454
0.575,45.650,2.121,2.122,232.313,249.456,235.459
0.577,45.707,2.123,2.123,232.328,249.510,235.469
0.578,45.768,2.122,2.120,232.344,249.567,235.483
0.580,45.833,2.118,2.114,232.360,249.627,235.500
0.581,45.901,2.112,2.108,232.375,249.691,235.521
0.583,45.973,2.106,2.102,232.389,249.757,235.545
0.585,46.049,2.100,2.098,232.401,249.827,235.572
0.586,46.128,2.096,2.097,232.411,249.900,235.601
0.588,46.210,2.094,2.100,232.418,249.976,235.631
0.589,46.296,2.093,2.105,232.421,250.056,235.663
0.591,46.386,2.095,2.112,232.421,250.139,235.696
0.593,46.479,2.098,2.120,232.417,250.226,235.730
0.594,46.575,2.102,2.129,232.410,250.315,235.766
0.596,46.674,2.107,2.136,232.403,250.406,235.803
0.597,46.774,2.113,2.141,232.395,250.497,235.842
0.599,46.874,2.120,2.145,232.388,250.589,235.884
0.601,46.976,2.127,2.149,232.383,250.680,235.929
0.602,47.077,2.136,2.152,232.381,250.769,235.977
0.604,47.179,2.145,2.155,232.382,250.857,236.028
0.605,47.280,2.155,2.160,232.390,250.941,236.083
0.607,47.381,2.165,2.166,232.403,251.022,236.142
0.609,47.482,2.176,2.173,232.423,251.099,236.205
0.610,47.583,2.187,2.183,232.448,251.171,236.270
0.612,47.682,2.198,2.193,232.479,251.238,236.336
0.613,47.778,2.209,2.205,232.513,251.300,236.401
0.615,47.870,2.220,2.218,232.550,251.357,236.463
0.617,47.956,2.230,2.231,232.589,251.408,236.522
0.618,48.036,2.240,2.246,232.629,251.452,236.574
0.620,48.107,2.250,2.261,232.668,251.491,236.619
0.621,48.169,2.259,2.278,232.707,251.522,236.655
0.623,48.219,2.268,2.296,232.743,251.547,236.681
0.625,48.260,2.277,2.317,232.776,251.564,236.695
0.626,48.293,2.285,2.340,232.807,251.577,236.701
0.628,48.322,2.294,2.366,232.833,251.588,236.701
0.629,48.348,2.301,2.391,232.857,251.598,236.700
0.631,48.371,2.305,2.412,232.876,251.612,236.701
0.633,48.397,2.305,2.425,232.892,251.630,236.707
0.634,48.429,2.298,2.427,232.904,251.656,236.722
0.636,48.475,2.285,2.414,232.911,251.693,236.749
0.637,48.540,2.263,2.384,232.914,251.741,236.792
0.639,48.629,2.236,2.341,232.913,251.805,236.855
0.641,48.746,2.213,2.295,232.907,251.886,236.939
0.642,48.889,2.201,2.258,232.898,251.985,237.042
0.644,49.054,2.207,2.241,232.891,252.101,237.159
0.645,49.238,2.241,2.253,232.886,252.236,237.284
0.647,49.436,2.309,2.305,232.888,252.388,237.412
0.649,49.647,2.412,2.400,232.900,252.557,237.536
0.650,49.868,2.540,2.525,232.924,252.744,237.651
0.652,50.099,2.681,2.667,232.964,252.948,237.752
