"T","Distance","Radius","FreeRadius","X","Y","Z"
0.000,0.000,0.846,0.846,239.675,227.853,241.827
0.001,0.184,0.878,0.878,239.824,227.938,241.896
0.003,0.367,0.909,0.909,239.970,228.022,241.964
0.004,0.544,0.941,0.941,240.112,228.105,242.030
0.006,0.713,0.971,0.971,240.248,228.186,242.092
0.007,0.873,1.001,1.001,240.374,228.263,242.151
0.008,1.021,1.029,1.029,240.490,228.338,242.205
0.010,1.154,1.055,1.055,240.593,228.408,242.252
0.011,1.270,1.080,1.080,240.680,228.473,242.293
0.013,1.367,1.102,1.102,240.749,228.532,242.325
0.014,1.444,1.121,1.121,240.799,228.586,242.349
0.015,1.503,1.137,1.137,240.832,228.633,242.363
0.017,1.552,1.148,1.148,240.851,228.677,242.370
0.018,1.596,1.155,1.155,240.864,228.720,242.370
0.020,1.641,1.157,1.157,240.876,228.763,242.365
0.021,1.690,1.154,1.154,240.891,228.809,242.356
0.023,1.748,1.147,1.147,240.916,228.860,242.344
0.024,1.819,1.141,1.141,240.955,228.917,242.330
0.025,1.909,1.142,1.142,241.016,228.983,242.316
0.027,2.025,1.152,1.152,241.102,229.060,242.303
0.028,2.171,1.176,1.176,241.217,229.148,242.291
0.030,2.342,1.220,1.220,241.357,229.245,242.281
0.031,2.531,1.286,1.286,241.517,229.345,242.273
0.032,2.733,1.374,1.374,241.692,229.446,242.266
0.034,2.941,1.477,1.477,241.876,229.543,242.262
0.035,3.148,1.587,1.587,242.064,229.631,242.259
0.037,3.349,1.698,1.698,242.250,229.706,242.257
0.038,3.538,1.802,1.802,242.429,229.765,242.257
0.039,3.709,1.893,1.893,242.596,229.803,242.259
0.041,3.860,1.962,1.962,242.746,229.816,242.262
0.042,3.991,2.008,2.008,242.877,229.804,242.267
0.044,4.110,2.034,2.034,242.991,229.770,242.272
0.045,4.222,2.045,2.045,243.090,229.717,242.278
0.046,4.332,2.045,2.045,243.174,229.648,242.285
0.048,4.441,2.039,2.039,243.246,229.565,242.292
0.049,4.552,2.032,2.032,243.307,229.473,242.298
0.051,4.665,2.028,2.028,243.358,229.373,242.304
0.052,4.778,2.030,2.030,243.402,229.268,242.309
0.054,4.890,2.037,2.037,243.440,229.162,242.313
0.055,5.000,2.048,2.048,243.472,229.058,242.315
0.056,5.107,2.061,2.061,243.501,228.955,242.317
0.058,5.210,2.074,2.074,243.525,228.855,242.319
0.059,5.309,2.086,2.086,243.546,228.758,242.322
0.061,5.403,2.095,2.095,243.565,228.666,242.326
0.062,5.492,2.100,2.100,243.581,228.579,242.332
0.063,5.575,2.101,2.102,243.595,228.497,242.341
0.065,5.652,2.100,2.101,243.608,228.422,242.353
0.066,5.722,2.097,2.098,243.619,228.355,242.369
0.068,5.786,2.094,2.095,243.631,228.295,242.389
0.069,5.844,2.092,2.093,243.642,228.243,242.413
0.070,5.897,2.092,2.092,243.651,228.198,242.437
0.072,5.944,2.094,2.094,243.660,228.157,242.459
0.073,5.986,2.099,2.097,243.668,228.119,242.476
0.075,6.023,2.104,2.101,243.674,228.084,242.485
0.076,6.057,2.109,2.106,243.678,228.050,242.484
0.077,6.094,2.112,2.109,243.679,228.015,242.470
0.079,6.141,2.112,2.110,243.678,227.979,242.440
0.080,6.203,2.108,2.108,243.674,227.940,242.392
0.082,6.282,2.099,2.101,243.668,227.897,242.327
0.083,6.367,2.084,2.089,243.660,227.854,242.254
0.085,6.448,2.061,2.070,243.653,227.812,242.185
0.086,6.516,2.032,2.043,243.648,227.774,242.129
0.087,6.561,1.994,2.006,243.646,227.743,242.097
0.089,6.582,1.948,1.958,243.649,227.722,242.100
0.090,6.633,1.894,1.898,243.658,227.713,242.149
0.092,6.740,1.829,1.825,243.676,227.718,242.254
0.093,6.916,1.758,1.740,243.703,227.740,242.426
0.094,7.170,1.683,1.653,243.742,227.782,242.674
0.096,7.496,1.609,1.569,243.790,227.842,242.991
0.097,7.877,1.541,1.497,243.844,227.915,243.361
0.099,8.297,1.483,1.445,243.902,227.998,243.768
0.100,8.738,1.440,1.419,243.962,228.088,244.196
0.101,9.184,1.417,1.427,244.019,228.179,244.629
0.103,9.619,1.414,1.471,244.071,228.268,245.052
0.104,10.027,1.429,1.542,244.116,228.351,245.448
0.106,10.389,1.458,1.630,244.150,228.425,245.801
0.107,10.691,1.496,1.725,244.171,228.485,246.097
0.108,10.925,1.541,1.817,244.176,228.529,246.326
0.110,11.100,1.588,1.897,244.169,228.559,246.498
0.111,11.228,1.634,1.953,244.149,228.575,246.624
0.113,11.322,1.675,1.980,244.119,228.578,246.713
0.114,11.396,1.713,1.985,244.081,228.571,246.775
0.115,11.463,1.751,1.974,244.035,228.554,246.822
0.117,11.533,1.789,1.955,243.985,228.528,246.862
0.118,11.610,1.830,1.937,243.930,228.496,246.907
0.120,11.701,1.876,1.926,243.874,228.457,246.967
0.121,11.810,1.928,1.931,243.817,228.414,247.050
0.123,11.938,1.989,1.957,243.762,228.369,247.156
0.124,12.081,2.055,2.003,243.710,228.323,247.281
0.125,12.235,2.123,2.063,243.663,228.280,247.421
0.127,12.395,2.192,2.134,243.622,228.242,247.571
0.128,12.558,2.257,2.209,243.590,228.211,247.728
0.130,12.718,2.315,2.286,243.568,228.190,247.885
0.131,12.873,2.364,2.358,243.558,228.181,248.040
0.132,13.021,2.400,2.421,243.562,228.186,248.187
0.134,13.160,2.426,2.476,243.581,228.208,248.323
0.135,13.293,2.443,2.522,243.614,228.248,248.446
0.137,13.425,2.456,2.561,243.657,228.304,248.558
0.138,13.560,2.467,2.594,243.703,228.376,248.662
0.139,13.698,2.479,2.621,243.747,228.461,248.762
0.141,13.841,2.496,2.645,243.784,228.558,248.860
0.142,13.990,2.519,2.665,243.808,228.666,248.959
0.144,14.147,2.551,2.683,243.814,228.784,249.062
0.145,14.315,2.590,2.702,243.796,228.910,249.172
0.146,14.501,2.635,2.722,243.748,229.043,249.293
0.148,14.708,2.686,2.745,243.666,229.180,249.425
0.149,14.937,2.740,2.773,243.556,229.320,249.569
0.151,15.181,2.798,2.809,243.425,229.459,249.720
0.152,15.432,2.859,2.853,243.281,229.593,249.876
0.154,15.683,2.920,2.904,243.132,229.719,250.034
0.155,15.926,2.980,2.960,242.986,229.834,250.190
0.156,16.152,3.036,3.017,242.851,229.934,250.343
0.158,16.355,3.086,3.071,242.735,230.017,250.487
0.159,16.528,3.127,3.118,242.647,230.078,250.622
0.161,16.665,3.158,3.154,242.593,230.115,250.743
0.162,16.774,3.176,3.177,242.576,230.128,250.850
0.163,16.868,3.181,3.185,242.590,230.119,250.942
0.165,16.959,3.175,3.180,242.627,230.095,251.022
0.166,17.054,3.162,3.167,242.682,230.058,251.089
0.168,17.151,3.145,3.149,242.748,230.013,251.145
0.169,17.248,3.128,3.131,242.819,229.965,251.190
0.170,17.338,3.114,3.115,242.887,229.917,251.225
0.172,17.416,3.106,3.106,242.946,229.873,251.251
0.173,17.475,3.106,3.105,242.990,229.839,251.269
0.175,17.509,3.113,3.111,243.014,229.817,251.280
0.176,17.523,3.123,3.122,243.020,229.805,251.285
0.177,17.529,3.136,3.134,243.016,229.801,251.285
0.179,17.539,3.146,3.146,243.006,229.801,251.283
0.180,17.550,3.153,3.153,242.996,229.803,251.278
0.182,17.556,3.154,3.154,242.993,229.802,251.274
0.183,17.567,3.145,3.145,243.001,229.796,251.270
0.185,17.597,3.126,3.127,243.028,229.781,251.269
0.186,17.653,3.097,3.097,243.078,229.756,251.272
0.187,17.742,3.054,3.054,243.157,229.715,251.280
0.189,17.866,2.999,2.999,243.267,229.660,251.294
0.190,18.020,2.929,2.929,243.404,229.593,251.314
0.192,18.200,2.844,2.844,243.565,229.516,251.337
0.193,18.402,2.743,2.743,243.747,229.433,251.364
0.194,18.621,2.629,2.629,243.945,229.345,251.394
0.196,18.853,2.507,2.507,244.157,229.257,251.426
0.197,19.094,2.382,2.382,244.380,229.170,251.460
0.199,19.339,2.260,2.260,244.609,229.088,251.494
0.200,19.586,2.144,2.145,244.841,229.013,251.528
0.201,19.829,2.041,2.041,245.073,228.947,251.561
0.203,20.067,1.955,1.955,245.302,228.891,251.593
0.204,20.297,1.888,1.887,245.525,228.844,251.624
0.206,20.517,1.836,1.835,245.739,228.804,251.653
0.207,20.723,1.800,1.798,245.941,228.772,251.680
0.208,20.914,1.775,1.774,246.128,228.746,251.704
0.210,21.086,1.762,1.760,246.298,228.727,251.726
0.211,21.236,1.757,1.756,246.447,228.712,251.744
0.213,21.363,1.758,1.759,246.572,228.702,251.759
0.214,21.463,1.764,1.767,246.671,228.697,251.770
0.215,21.537,1.773,1.777,246.745,228.693,251.778
0.217,21.591,1.781,1.787,246.798,228.690,251.783
0.218,21.629,1.788,1.796,246.836,228.685,251.787
0.220,21.658,1.790,1.799,246.863,228.676,251.791
0.221,21.684,1.785,1.796,246.884,228.661,251.797
0.223,21.716,1.771,1.782,246.903,228.638,251.804
0.224,21.758,1.748,1.758,246.927,228.604,251.816
0.225,21.816,1.716,1.725,246.958,228.558,251.832
0.227,21.895,1.677,1.684,247.003,228.497,251.853
0.228,21.998,1.633,1.638,247.064,228.419,251.882
0.230,22.122,1.586,1.589,247.140,228.328,251.917
0.231,22.265,1.537,1.539,247.229,228.225,251.961
0.232,22.424,1.489,1.489,247.328,228.111,252.012
0.234,22.596,1.443,1.442,247.436,227.991,252.072
0.235,22.778,1.400,1.399,247.548,227.865,252.141
0.237,22.968,1.362,1.360,247.664,227.737,252.219
0.238,23.163,1.330,1.329,247.780,227.608,252.307
0.239,23.360,1.305,1.305,247.895,227.480,252.405
0.241,23.558,1.290,1.289,248.005,227.357,252.513
0.242,23.755,1.284,1.284,248.111,227.239,252.630
0.244,23.949,1.290,1.290,248.211,227.127,252.753
0.245,24.139,1.305,1.305,248.306,227.022,252.879
0.246,24.322,1.325,1.326,248.397,226.925,253.006
0.248,24.497,1.349,1.350,248.482,226.836,253.130
0.249,24.661,1.373,1.374,248.563,226.757,253.248
0.251,24.811,1.395,1.395,248.639,226.687,253.357
0.252,24.946,1.410,1.410,248.710,226.629,253.456
0.254,25.063,1.417,1.417,248.776,226.582,253.540
0.255,25.161,1.415,1.415,248.838,226.547,253.608
0.256,25.245,1.407,1.407,248.898,226.524,253.662
0.258,25.319,1.395,1.395,248.957,226.514,253.705
0.259,25.388,1.380,1.380,249.018,226.515,253.739
0.261,25.460,1.364,1.364,249.082,226.529,253.767
0.262,25.538,1.350,1.350,249.152,226.554,253.790
0.263,25.626,1.339,1.339,249.229,226.592,253.812
0.265,25.729,1.332,1.332,249.317,226.641,253.835
0.266,25.848,1.329,1.329,249.415,226.702,253.862
0.268,25.985,1.330,1.330,249.527,226.774,253.894
0.269,26.139,1.335,1.335,249.652,226.856,253.932
0.270,26.305,1.345,1.345,249.786,226.944,253.974
0.272,26.479,1.358,1.358,249.927,227.036,254.018
0.273,26.656,1.376,1.376,250.073,227.126,254.062
0.275,26.832,1.397,1.397,250.220,227.213,254.103
0.276,27.003,1.421,1.421,250.366,227.293,254.141
0.277,27.165,1.447,1.447,250.509,227.363,254.174
0.279,27.314,1.475,1.475,250.644,227.420,254.198
0.280,27.447,1.502,1.502,250.771,227.459,254.214
0.282,27.565,1.529,1.529,250.887,227.481,254.219
0.283,27.672,1.554,1.554,250.993,227.486,254.217
0.285,27.771,1.577,1.577,251.092,227.480,254.210
0.286,27.865,1.598,1.598,251.184,227.464,254.202
0.287,27.956,1.619,1.619,251.272,227.442,254.196
0.289,28.045,1.639,1.639,251.358,227.417,254.194
0.290,28.134,1.659,1.659,251.443,227.392,254.200
0.292,28.223,1.680,1.680,251.528,227.371,254.216
0.293,28.317,1.702,1.702,251.616,227.357,254.245
0.294,28.419,1.726,1.726,251.708,227.352,254.291
0.296,28.533,1.751,1.751,251.804,227.355,254.351
0.297,28.656,1.778,1.778,251.904,227.363,254.423
0.299,28.788,1.807,1.807,252.009,227.372,254.503
0.300,28.926,1.836,1.836,252.118,227.379,254.587
0.301,29.068,1.866,1.866,252.230,227.381,254.674
0.303,29.213,1.896,1.896,252.347,227.373,254.758
0.304,29.358,1.926,1.926,252.468,227.353,254.837
0.306,29.506,1.957,1.957,252.592,227.317,254.909
0.307,29.657,1.987,1.987,252.719,227.261,254.968
0.308,29.815,2.016,2.016,252.849,227.185,255.014
0.310,29.977,2.045,2.045,252.978,227.093,255.049
0.311,30.142,2.072,2.072,253.104,226.989,255.073
0.313,30.306,2.098,2.098,253.222,226.877,255.090
0.314,30.464,2.123,2.123,253.331,226.761,255.101
0.315,30.613,2.146,2.146,253.425,226.647,255.108
0.317,30.747,2.168,2.168,253.503,226.539,255.112
0.318,30.862,2.188,2.188,253.562,226.440,255.116
0.320,30.953,2.206,2.206,253.597,226.355,255.122
0.321,31.021,2.223,2.223,253.607,226.289,255.131
0.323,31.072,2.238,2.238,253.596,226.241,255.143
0.324,31.114,2.251,2.251,253.572,226.208,255.154
0.325,31.150,2.263,2.263,253.544,226.188,255.165
0.327,31.179,2.274,2.274,253.517,226.181,255.173
0.328,31.194,2.285,2.285,253.502,226.182,255.175
0.330,31.205,2.295,2.295,253.505,226.191,255.171
0.331,31.239,2.307,2.307,253.534,226.205,255.158
0.332,31.308,2.319,2.319,253.596,226.222,255.134
0.334,31.420,2.333,2.333,253.701,226.240,255.098
0.335,31.577,2.349,2.349,253.849,226.257,255.051
0.337,31.770,2.366,2.366,254.034,226.273,254.996
0.338,31.994,2.383,2.383,254.249,226.287,254.937
0.339,32.238,2.402,2.402,254.486,226.299,254.880
0.341,32.496,2.420,2.420,254.739,226.309,254.829
0.342,32.760,2.437,2.437,254.999,226.315,254.789
0.344,33.022,2.454,2.454,255.260,226.317,254.763
0.345,33.276,2.469,2.469,255.514,226.316,254.756
0.346,33.517,2.483,2.483,255.754,226.309,254.773
0.348,33.741,2.496,2.496,255.974,226.297,254.818
0.349,33.952,2.508,2.508,256.173,226.280,254.887
0.351,34.153,2.519,2.519,256.352,226.258,254.975
0.352,34.347,2.530,2.530,256.515,226.229,255.076
0.354,34.534,2.541,2.541,256.662,226.196,255.186
0.355,34.713,2.551,2.551,256.796,226.156,255.298
0.356,34.883,2.561,2.561,256.917,226.111,255.408
0.358,35.043,2.573,2.573,257.029,226.061,255.511
0.359,35.192,2.586,2.586,257.133,226.004,255.601
0.361,35.328,2.601,2.601,257.231,225.941,255.672
0.362,35.453,2.619,2.619,257.323,225.873,255.723
0.363,35.572,2.640,2.640,257.412,225.801,255.755
0.365,35.687,2.665,2.665,257.497,225.727,255.773
0.366,35.799,2.693,2.693,257.579,225.650,255.777
0.368,35.910,2.722,2.722,257.660,225.574,255.770
0.369,36.020,2.753,2.753,257.739,225.499,255.756
0.370,36.128,2.783,2.783,257.818,225.427,255.736
0.372,36.235,2.811,2.811,257.896,225.359,255.712
0.373,36.339,2.837,2.837,257.976,225.296,255.689
0.375,36.441,2.858,2.858,258.057,225.240,255.666
0.376,36.539,2.876,2.876,258.139,225.190,255.646
0.377,36.633,2.890,2.890,258.221,225.145,255.629
0.379,36.724,2.901,2.901,258.301,225.106,255.616
0.380,36.810,2.908,2.908,258.380,225.071,255.606
0.382,36.892,2.913,2.913,258.455,225.041,255.600
0.383,36.968,2.915,2.915,258.526,225.014,255.599
0.385,37.038,2.916,2.916,258.592,224.991,255.603
0.386,37.102,2.914,2.914,258.652,224.970,255.613
0.387,37.161,2.911,2.911,258.705,224.951,255.629
0.389,37.214,2.906,2.906,258.751,224.934,255.650
0.390,37.263,2.900,2.900,258.790,224.918,255.675
0.392,37.308,2.893,2.893,258.822,224.904,255.703
0.393,37.349,2.885,2.885,258.848,224.891,255.732
0.394,37.386,2.876,2.876,258.868,224.880,255.762
0.396,37.420,2.867,2.867,258.883,224.869,255.790
0.397,37.449,2.857,2.857,258.893,224.859,255.815
0.399,37.473,2.848,2.848,258.898,224.849,255.836
0.400,37.491,2.840,2.840,258.900,224.840,255.851
0.401,37.503,2.834,2.834,258.897,224.831,255.861
0.403,37.514,2.830,2.830,258.892,224.823,255.865
0.404,37.523,2.829,2.829,258.885,224.816,255.866
0.406,37.532,2.830,2.830,258.878,224.812,255.866
0.407,37.538,2.833,2.833,258.873,224.809,255.866
0.408,37.542,2.836,2.836,258.870,224.809,255.870
0.410,37.551,2.836,2.836,258.870,224.812,255.878
0.411,37.569,2.833,2.833,258.875,224.819,255.893
0.413,37.597,2.823,2.823,258.887,224.830,255.916
0.414,37.639,2.807,2.807,258.905,224.846,255.950
0.415,37.694,2.782,2.782,258.931,224.867,255.995
0.417,37.762,2.749,2.749,258.964,224.891,256.049
0.418,37.840,2.712,2.712,259.003,224.918,256.111
0.420,37.927,2.671,2.671,259.047,224.948,256.180
0.421,38.021,2.628,2.628,259.095,224.980,256.254
0.423,38.121,2.586,2.586,259.147,225.012,256.333
0.424,38.225,2.546,2.546,259.202,225.045,256.416
0.425,38.331,2.510,2.510,259.259,225.077,256.499
0.427,38.438,2.477,2.477,259.317,225.108,256.584
0.428,38.545,2.445,2.445,259.375,225.137,256.668
0.430,38.652,2.411,2.411,259.433,225.168,256.753
0.431,38.762,2.375,2.375,259.488,225.202,256.841
0.432,38.876,2.332,2.332,259.539,225.243,256.934
0.434,38.996,2.282,2.282,259.585,225.293,257.034
0.435,39.126,2.223,2.223,259.623,225.355,257.142
0.437,39.270,2.156,2.156,259.654,225.431,257.259
0.438,39.431,2.085,2.085,259.675,225.525,257.389
0.439,39.615,2.016,2.016,259.685,225.639,257.532
0.441,39.824,1.952,1.952,259.682,225.775,257.691
0.442,40.057,1.899,1.899,259.667,225.931,257.863
0.444,40.307,1.859,1.859,259.644,226.101,258.046
0.445,40.568,1.839,1.839,259.614,226.279,258.235
0.446,40.832,1.838,1.838,259.581,226.457,258.426
0.448,41.092,1.852,1.852,259.548,226.631,258.617
0.449,41.340,1.876,1.876,259.517,226.793,258.803
0.451,41.570,1.907,1.907,259.491,226.937,258.980
0.452,41.775,1.940,1.940,259.472,227.058,259.144
0.454,41.949,1.970,1.970,259.464,227.148,259.293
0.455,42.091,1.993,1.993,259.469,227.205,259.423
0.456,42.207,2.007,2.007,259.484,227.231,259.535
0.458,42.305,2.012,2.012,259.507,227.232,259.630
0.459,42.392,2.010,2.010,259.537,227.214,259.709
0.461,42.473,2.003,2.003,259.571,227.180,259.774
0.462,42.549,1.992,1.992,259.607,227.136,259.825
0.463,42.622,1.979,1.979,259.644,227.086,259.864
0.465,42.688,1.964,1.964,259.679,227.037,259.891
0.466,42.746,1.950,1.950,259.711,226.992,259.908
0.468,42.790,1.936,1.936,259.736,226.957,259.916
0.469,42.821,1.921,1.921,259.756,226.933,259.918
0.470,42.843,1.907,1.907,259.773,226.919,259.918
0.472,42.859,1.893,1.893,259.789,226.916,259.920
0.473,42.879,1.878,1.878,259.806,226.923,259.929
0.475,42.911,1.862,1.862,259.826,226.939,259.947
0.476,42.959,1.846,1.846,259.850,226.965,259.981
0.477,43.029,1.830,1.830,259.882,226.999,260.032
0.479,43.123,1.815,1.815,259.923,227.041,260.107
0.480,43.247,1.801,1.801,259.974,227.090,260.208
0.482,43.401,1.790,1.790,260.037,227.147,260.336
0.483,43.580,1.780,1.780,260.110,227.209,260.487
0.485,43.776,1.775,1.775,260.189,227.273,260.654
0.486,43.981,1.773,1.773,260.272,227.338,260.831
0.487,44.190,1.775,1.775,260.357,227.402,261.010
0.489,44.393,1.780,1.780,260.439,227.462,261.186
0.490,44.585,1.785,1.785,260.518,227.517,261.353
0.492,44.758,1.791,1.791,260.589,227.565,261.503
0.493,44.905,1.796,1.796,260.651,227.602,261.631
0.494,45.020,1.800,1.800,260.700,227.629,261.731
0.496,45.102,1.800,1.800,260.737,227.644,261.803
0.497,45.155,1.797,1.797,260.762,227.652,261.849
0.499,45.185,1.793,1.793,260.777,227.653,261.874
0.500,45.194,1.787,1.787,260.784,227.651,261.881
0.501,45.204,1.780,1.780,260.783,227.647,261.872
0.503,45.226,1.773,1.773,260.775,227.645,261.851
0.504,45.259,1.767,1.767,260.761,227.646,261.821
0.506,45.300,1.762,1.762,260.743,227.652,261.785
0.507,45.345,1.758,1.758,260.722,227.666,261.747
0.508,45.394,1.755,1.755,260.700,227.689,261.710
0.510,45.444,1.751,1.751,260.681,227.719,261.676
0.511,45.489,1.744,1.744,260.668,227.752,261.647
0.513,45.530,1.734,1.734,260.665,227.787,261.627
0.514,45.567,1.719,1.719,260.677,227.821,261.618
0.515,45.610,1.698,1.698,260.708,227.851,261.622
0.517,45.672,1.670,1.670,260.760,227.876,261.643
0.518,45.761,1.639,1.639,260.839,227.892,261.683
0.520,45.886,1.605,1.605,260.948,227.897,261.743
0.521,46.051,1.571,1.571,261.090,227.889,261.828
0.523,46.253,1.539,1.539,261.261,227.869,261.932
0.524,46.481,1.511,1.511,261.454,227.840,262.052
0.525,46.729,1.489,1.489,261.661,227.804,262.182
0.527,46.986,1.475,1.475,261.876,227.764,262.317
0.528,47.243,1.468,1.468,262.091,227.723,262.453
0.530,47.492,1.467,1.467,262.299,227.683,262.583
0.531,47.723,1.471,1.471,262.493,227.647,262.703
0.532,47.927,1.479,1.479,262.666,227.617,262.808
0.534,48.095,1.490,1.490,262.810,227.596,262.893
0.535,48.224,1.502,1.502,262.921,227.585,262.955
0.537,48.316,1.515,1.515,263.002,227.579,262.999
0.538,48.374,1.527,1.527,263.054,227.575,263.026
0.539,48.404,1.538,1.538,263.079,227.569,263.040
0.541,48.416,1.547,1.547,263.078,227.558,263.045
0.542,48.447,1.552,1.552,263.054,227.538,263.044
0.544,48.503,1.553,1.553,263.009,227.505,263.041
0.545,48.585,1.549,1.549,262.945,227.455,263.037
0.546,48.693,1.538,1.538,262.863,227.384,263.038
0.548,48.829,1.523,1.523,262.766,227.290,263.045
0.549,48.987,1.505,1.505,262.657,227.175,263.059
0.551,49.163,1.487,1.487,262.541,227.044,263.078
0.552,49.350,1.472,1.472,262.422,226.901,263.101
0.554,49.542,1.461,1.461,262.306,226.752,263.127
0.555,49.732,1.457,1.457,262.196,226.599,263.154
0.556,49.914,1.463,1.463,262.097,226.449,263.182
0.558,50.083,1.477,1.477,262.013,226.305,263.210
0.559,50.233,1.499,1.499,261.949,226.172,263.235
0.561,50.359,1.526,1.526,261.909,226.054,263.258
0.562,50.462,1.555,1.555,261.894,225.954,263.277
0.563,50.550,1.585,1.585,261.901,225.868,263.294
0.565,50.629,1.614,1.614,261.924,225.794,263.310
0.566,50.706,1.640,1.640,261.961,225.729,263.327
0.568,50.782,1.660,1.660,262.006,225.670,263.345
0.569,50.859,1.677,1.677,262.056,225.615,263.365
0.570,50.938,1.692,1.692,262.107,225.561,263.389
0.572,51.017,1.704,1.704,262.155,225.505,263.418
0.573,51.098,1.716,1.716,262.195,225.444,263.454
