"T","Distance","Radius","FreeRadius","X","Y","Z"
0.000,0.000,0.820,0.820,220.465,189.348,175.099
0.001,0.151,0.855,0.855,220.350,189.443,175.121
0.002,0.301,0.889,0.889,220.236,189.538,175.143
0.003,0.450,0.922,0.922,220.122,189.632,175.163
0.004,0.597,0.954,0.954,220.010,189.726,175.182
0.005,0.743,0.984,0.984,219.899,189.820,175.197
0.006,0.887,1.012,1.012,219.791,189.912,175.209
0.008,1.028,1.038,1.038,219.684,190.005,175.217
0.009,1.166,1.060,1.060,219.581,190.096,175.221
0.010,1.300,1.079,1.079,219.480,190.186,175.219
0.011,1.432,1.094,1.094,219.384,190.275,175.210
0.012,1.560,1.105,1.105,219.291,190.362,175.195
0.013,1.685,1.113,1.113,219.204,190.448,175.172
0.014,1.804,1.120,1.120,219.122,190.530,175.142
0.015,1.919,1.124,1.124,219.048,190.608,175.102
0.016,2.029,1.129,1.129,218.982,190.680,175.052
0.017,2.134,1.133,1.133,218.926,190.746,174.992
0.018,2.238,1.138,1.138,218.881,190.805,174.920
0.019,2.341,1.146,1.146,218.847,190.855,174.837
0.020,2.447,1.155,1.155,218.826,190.896,174.740
0.021,2.561,1.167,1.167,218.819,190.926,174.631
0.023,2.687,1.182,1.182,218.827,190.945,174.507
0.024,2.824,1.197,1.197,218.850,190.952,174.371
0.025,2.972,1.212,1.212,218.885,190.951,174.228
0.026,3.125,1.226,1.226,218.928,190.942,174.082
0.027,3.279,1.237,1.237,218.979,190.928,173.937
0.028,3.429,1.245,1.245,219.035,190.910,173.799
0.029,3.570,1.250,1.250,219.092,190.891,173.671
0.030,3.698,1.248,1.248,219.149,190.873,173.558
0.031,3.806,1.241,1.241,219.203,190.857,173.466
0.032,3.891,1.228,1.228,219.252,190.846,173.397
0.033,3.948,1.211,1.211,219.293,190.840,173.358
0.034,3.982,1.191,1.191,219.324,190.842,173.347
0.035,4.008,1.170,1.170,219.348,190.850,173.357
0.037,4.039,1.148,1.148,219.364,190.862,173.380
0.038,4.071,1.127,1.127,219.374,190.878,173.407
0.039,4.099,1.108,1.108,219.378,190.894,173.429
0.040,4.119,1.093,1.093,219.378,190.911,173.439
0.041,4.139,1.083,1.083,219.374,190.927,173.427
0.042,4.183,1.079,1.079,219.367,190.940,173.385
0.043,4.264,1.079,1.079,219.359,190.949,173.305
0.044,4.391,1.086,1.086,219.351,190.952,173.178
0.045,4.569,1.097,1.097,219.342,190.949,173.000
0.046,4.791,1.114,1.114,219.333,190.939,172.779
0.047,5.047,1.136,1.136,219.324,190.923,172.524
0.048,5.325,1.162,1.162,219.314,190.900,172.247
0.049,5.616,1.194,1.194,219.302,190.872,171.958
0.050,5.909,1.230,1.230,219.288,190.838,171.667
0.052,6.195,1.271,1.271,219.272,190.798,171.384
0.053,6.462,1.315,1.315,219.254,190.754,171.121
0.054,6.702,1.362,1.362,219.232,190.704,170.887
0.055,6.905,1.411,1.411,219.207,190.650,170.693
0.056,7.065,1.461,1.461,219.179,190.591,170.548
0.057,7.186,1.511,1.511,219.147,190.529,170.449
0.058,7.280,1.560,1.560,219.113,190.465,170.389
0.059,7.358,1.608,1.608,219.077,190.401,170.361
0.060,7.431,1.652,1.652,219.040,190.338,170.359
0.061,7.504,1.694,1.694,219.004,190.277,170.376
0.062,7.577,1.731,1.731,218.968,190.221,170.404
0.063,7.646,1.765,1.765,218.934,190.170,170.437
0.064,7.709,1.794,1.794,218.902,190.125,170.468
0.066,7.760,1.820,1.820,218.873,190.089,170.490
0.067,7.797,1.841,1.841,218.848,190.063,170.497
0.068,7.826,1.858,1.858,218.827,190.045,170.488
0.069,7.858,1.870,1.870,218.807,190.035,170.467
0.070,7.894,1.878,1.878,218.788,190.028,170.436
0.071,7.935,1.882,1.882,218.768,190.024,170.401
0.072,7.979,1.881,1.881,218.745,190.020,170.364
0.073,8.023,1.876,1.876,218.719,190.013,170.329
0.074,8.068,1.867,1.867,218.687,190.002,170.300
0.075,8.115,1.853,1.853,218.647,189.984,170.280
0.076,8.170,1.836,1.836,218.600,189.957,170.274
0.077,8.240,1.815,1.815,218.543,189.919,170.285
0.078,8.328,1.791,1.791,218.475,189.868,170.313
0.079,8.434,1.763,1.763,218.399,189.809,170.356
0.081,8.555,1.732,1.732,218.317,189.741,170.413
0.082,8.687,1.698,1.698,218.230,189.667,170.479
0.083,8.827,1.661,1.661,218.139,189.590,170.552
0.084,8.971,1.623,1.623,218.047,189.511,170.630
0.085,9.116,1.583,1.583,217.955,189.433,170.710
0.086,9.257,1.543,1.543,217.865,189.357,170.789
0.087,9.392,1.503,1.503,217.779,189.286,170.865
0.088,9.517,1.463,1.463,217.698,189.222,170.934
0.089,9.629,1.426,1.426,217.623,189.165,170.996
0.090,9.730,1.390,1.390,217.555,189.113,171.049
0.091,9.821,1.357,1.357,217.493,189.064,171.094
0.092,9.905,1.327,1.327,217.436,189.014,171.132
0.093,9.985,1.301,1.301,217.385,188.962,171.162
0.095,10.062,1.277,1.277,217.338,188.904,171.186
0.096,10.143,1.257,1.257,217.296,188.838,171.202
0.097,10.229,1.240,1.240,217.258,188.761,171.213
0.098,10.327,1.226,1.226,217.224,188.669,171.217
0.099,10.439,1.214,1.214,217.193,188.562,171.215
0.100,10.568,1.206,1.206,217.164,188.436,171.208
0.101,10.711,1.200,1.200,217.138,188.296,171.196
0.102,10.864,1.198,1.198,217.112,188.146,171.181
0.103,11.021,1.197,1.197,217.085,187.992,171.164
0.104,11.177,1.199,1.199,217.057,187.840,171.147
0.105,11.327,1.203,1.203,217.026,187.694,171.129
0.106,11.466,1.207,1.207,216.991,187.560,171.113
0.107,11.591,1.213,1.213,216.951,187.444,171.100
0.108,11.696,1.218,1.218,216.904,187.349,171.091
0.110,11.782,1.224,1.224,216.850,187.282,171.087
0.111,11.853,1.230,1.230,216.788,187.248,171.090
0.112,11.923,1.234,1.234,216.718,187.245,171.098
0.113,12.002,1.238,1.238,216.645,187.268,171.112
0.114,12.090,1.241,1.241,216.570,187.311,171.132
0.115,12.187,1.243,1.243,216.498,187.371,171.155
0.116,12.289,1.245,1.245,216.430,187.442,171.182
0.117,12.391,1.246,1.246,216.370,187.519,171.212
0.118,12.489,1.247,1.247,216.321,187.597,171.244
0.119,12.577,1.247,1.247,216.285,187.671,171.277
0.120,12.653,1.247,1.247,216.266,187.737,171.311
0.121,12.715,1.247,1.247,216.266,187.788,171.346
0.122,12.767,1.247,1.247,216.283,187.823,171.379
0.124,12.814,1.247,1.247,216.312,187.846,171.409
0.125,12.856,1.248,1.248,216.345,187.856,171.434
0.126,12.890,1.250,1.250,216.374,187.858,171.451
0.127,12.912,1.253,1.253,216.393,187.852,171.458
0.128,12.923,1.257,1.257,216.396,187.842,171.454
0.129,12.954,1.264,1.264,216.374,187.829,171.437
0.130,13.018,1.272,1.272,216.322,187.815,171.403
0.131,13.122,1.283,1.283,216.231,187.804,171.351
0.132,13.276,1.297,1.297,216.096,187.796,171.280
0.133,13.479,1.313,1.313,215.914,187.792,171.188
0.134,13.725,1.331,1.331,215.694,187.793,171.079
0.135,14.003,1.350,1.350,215.444,187.796,170.958
0.136,14.302,1.369,1.369,215.175,187.801,170.828
0.137,14.612,1.387,1.387,214.895,187.805,170.693
0.139,14.924,1.404,1.404,214.615,187.808,170.558
0.140,15.226,1.420,1.420,214.344,187.808,170.425
0.141,15.508,1.433,1.433,214.090,187.804,170.300
0.142,15.761,1.443,1.443,213.865,187.795,170.186
0.143,15.974,1.449,1.449,213.676,187.779,170.087
0.144,16.141,1.452,1.452,213.532,187.755,170.007
0.145,16.267,1.453,1.453,213.429,187.726,169.942
0.146,16.357,1.451,1.451,213.362,187.691,169.892
0.147,16.423,1.449,1.449,213.325,187.655,169.852
0.148,16.473,1.445,1.445,213.314,187.618,169.820
0.149,16.518,1.441,1.441,213.322,187.582,169.794
0.150,16.564,1.437,1.437,213.345,187.550,169.770
0.151,16.613,1.434,1.434,213.377,187.522,169.746
0.153,16.662,1.431,1.431,213.413,187.502,169.719
0.154,16.711,1.430,1.430,213.448,187.490,169.686
0.155,16.761,1.429,1.429,213.476,187.489,169.646
0.156,16.814,1.429,1.429,213.496,187.497,169.597
0.157,16.872,1.429,1.429,213.508,187.513,169.543
0.158,16.934,1.429,1.429,213.512,187.533,169.484
0.159,16.999,1.429,1.429,213.508,187.557,169.423
0.160,17.066,1.428,1.428,213.496,187.580,169.362
0.161,17.132,1.427,1.427,213.477,187.602,169.303
0.162,17.197,1.424,1.424,213.449,187.620,169.246
0.163,17.261,1.420,1.420,213.414,187.632,169.195
0.164,17.322,1.415,1.415,213.371,187.635,169.151
0.165,17.384,1.409,1.409,213.320,187.627,169.116
0.166,17.450,1.401,1.401,213.263,187.609,169.089
0.168,17.521,1.392,1.392,213.200,187.584,169.069
0.169,17.596,1.381,1.381,213.134,187.553,169.053
0.170,17.673,1.369,1.369,213.066,187.519,169.040
0.171,17.751,1.356,1.356,212.997,187.484,169.028
0.172,17.826,1.341,1.341,212.930,187.452,169.014
0.173,17.897,1.324,1.324,212.867,187.425,168.997
0.174,17.964,1.306,1.306,212.807,187.405,168.975
0.175,18.026,1.288,1.288,212.754,187.396,168.945
0.176,18.085,1.269,1.269,212.709,187.398,168.905
0.177,18.149,1.249,1.249,212.673,187.413,168.855
0.178,18.222,1.230,1.230,212.645,187.437,168.793
0.179,18.304,1.212,1.212,212.623,187.465,168.718
0.180,18.398,1.195,1.195,212.608,187.494,168.631
0.182,18.502,1.179,1.179,212.597,187.520,168.530
0.183,18.619,1.164,1.164,212.591,187.537,168.414
0.184,18.750,1.152,1.152,212.588,187.544,168.284
0.185,18.896,1.143,1.143,212.587,187.534,168.138
0.186,19.061,1.137,1.137,212.587,187.504,167.976
0.187,19.248,1.136,1.136,212.587,187.450,167.796
0.188,19.460,1.139,1.139,212.587,187.370,167.600
0.189,19.693,1.148,1.148,212.584,187.267,167.391
0.190,19.942,1.163,1.163,212.577,187.148,167.173
0.191,20.201,1.186,1.186,212.565,187.018,166.949
0.192,20.465,1.215,1.215,212.546,186.881,166.724
0.193,20.728,1.252,1.252,212.518,186.744,166.502
0.194,20.983,1.296,1.296,212.480,186.611,166.287
0.195,21.227,1.345,1.345,212.430,186.489,166.082
0.197,21.454,1.399,1.399,212.367,186.381,165.892
0.198,21.661,1.455,1.455,212.289,186.295,165.721
0.199,21.848,1.514,1.514,212.194,186.233,165.572
0.200,22.019,1.573,1.573,212.086,186.195,165.446
0.201,22.179,1.632,1.632,211.967,186.176,165.340
0.202,22.331,1.690,1.690,211.842,186.172,165.254
0.203,22.477,1.745,1.745,211.713,186.179,165.185
0.204,22.616,1.797,1.797,211.585,186.191,165.134
0.205,22.747,1.845,1.845,211.460,186.206,165.097
0.206,22.866,1.888,1.888,211.343,186.219,165.075
0.207,22.973,1.926,1.926,211.237,186.225,165.065
0.208,23.064,1.959,1.959,211.146,186.220,165.066
0.209,23.141,1.985,1.985,211.072,186.200,165.077
0.211,23.210,2.004,2.004,211.016,186.165,165.095
0.212,23.279,2.015,2.015,210.974,186.114,165.116
0.213,23.353,2.018,2.018,210.943,186.050,165.135
0.214,23.435,2.013,2.013,210.919,185.972,165.150
0.215,23.527,2.003,2.003,210.900,185.883,165.155
0.216,23.629,1.989,1.989,210.881,185.783,165.148
0.217,23.743,1.973,1.973,210.860,185.673,165.125
0.218,23.873,1.958,1.958,210.833,185.554,165.080
0.219,24.022,1.945,1.945,210.796,185.428,165.011
0.220,24.194,1.937,1.937,210.748,185.294,164.914
0.221,24.391,1.935,1.935,210.686,185.155,164.787
0.222,24.611,1.942,1.942,210.614,185.013,164.637
0.223,24.847,1.959,1.959,210.536,184.869,164.467
0.224,25.094,1.984,1.984,210.455,184.725,164.283
0.226,25.348,2.016,2.016,210.374,184.583,164.089
0.227,25.602,2.053,2.053,210.297,184.446,163.890
0.228,25.851,2.094,2.094,210.227,184.314,163.690
0.229,26.089,2.137,2.137,210.167,184.190,163.496
0.230,26.312,2.180,2.180,210.121,184.075,163.311
0.231,26.513,2.222,2.222,210.092,183.972,163.140
0.232,26.691,2.260,2.260,210.083,183.881,162.987
0.233,26.850,2.295,2.295,210.088,183.800,162.851
0.234,26.993,2.325,2.325,210.105,183.725,162.731
0.235,27.123,2.354,2.354,210.128,183.653,162.625
0.236,27.242,2.382,2.382,210.154,183.581,162.533
0.237,27.355,2.411,2.411,210.179,183.507,162.452
0.238,27.462,2.444,2.444,210.199,183.427,162.383
0.240,27.570,2.481,2.481,210.209,183.338,162.323
0.241,27.684,2.526,2.526,210.205,183.236,162.272
0.242,27.810,2.578,2.578,210.183,183.120,162.229
0.243,27.955,2.641,2.641,210.140,182.986,162.191
0.244,28.119,2.713,2.713,210.080,182.837,162.159
0.245,28.297,2.794,2.794,210.006,182.677,162.132
0.246,28.485,2.878,2.878,209.926,182.509,162.109
0.247,28.676,2.964,2.964,209.844,182.338,162.089
0.248,28.865,3.049,3.049,209.764,182.167,162.072
0.249,29.048,3.129,3.129,209.693,182.000,162.057
0.250,29.218,3.202,3.202,209.635,181.840,162.044
0.251,29.372,3.264,3.264,209.595,181.692,162.032
0.252,29.506,3.312,3.312,209.579,181.559,162.021
0.253,29.622,3.345,3.345,209.592,181.445,162.008
0.255,29.726,3.363,3.363,209.631,181.350,161.995
0.256,29.826,3.366,3.366,209.692,181.272,161.978
0.257,29.928,3.359,3.359,209.770,181.209,161.958
0.258,30.034,3.341,3.341,209.860,181.159,161.931
0.259,30.143,3.314,3.314,209.956,181.121,161.898
0.260,30.254,3.281,3.281,210.055,181.093,161.856
0.261,30.364,3.243,3.243,210.150,181.073,161.804
0.262,30.472,3.202,3.202,210.236,181.059,161.741
0.263,30.578,3.159,3.159,210.310,181.048,161.665
0.264,30.683,3.115,3.115,210.365,181.041,161.576
0.265,30.793,3.071,3.071,210.400,181.033,161.472
0.266,30.910,3.028,3.028,210.419,181.024,161.357
0.267,31.036,2.984,2.984,210.426,181.012,161.232
0.269,31.170,2.941,2.941,210.423,180.994,161.099
0.270,31.312,2.898,2.898,210.414,180.968,160.960
0.271,31.459,2.857,2.857,210.402,180.932,160.818
0.272,31.611,2.817,2.817,210.391,180.885,160.673
0.273,31.768,2.778,2.778,210.384,180.824,160.529
0.274,31.929,2.741,2.741,210.385,180.747,160.387
0.275,32.097,2.706,2.706,210.396,180.653,160.250
0.276,32.272,2.671,2.671,210.420,180.541,160.118
0.277,32.453,2.638,2.638,210.455,180.414,159.993
0.278,32.638,2.606,2.606,210.498,180.278,159.875
0.279,32.824,2.575,2.575,210.548,180.136,159.765
0.280,33.008,2.543,2.543,210.602,179.993,159.664
0.281,33.185,2.512,2.512,210.657,179.852,159.573
0.282,33.351,2.481,2.481,210.713,179.718,159.492
0.284,33.501,2.450,2.450,210.767,179.596,159.421
0.285,33.633,2.419,2.419,210.815,179.489,159.362
0.286,33.740,2.388,2.388,210.858,179.402,159.316
0.287,33.820,2.360,2.360,210.891,179.338,159.282
0.288,33.875,2.334,2.334,210.917,179.295,159.260
0.289,33.907,2.312,2.312,210.934,179.270,159.247
0.290,33.921,2.295,2.295,210.944,179.262,159.243
0.291,33.927,2.282,2.282,210.946,179.266,159.246
0.292,33.944,2.275,2.275,210.942,179.282,159.254
0.293,33.972,2.275,2.275,210.931,179.304,159.265
0.294,34.007,2.282,2.282,210.915,179.333,159.279
0.295,34.047,2.294,2.294,210.893,179.363,159.294
0.296,34.090,2.309,2.309,210.867,179.393,159.307
0.298,34.133,2.324,2.324,210.836,179.421,159.318
0.299,34.175,2.339,2.339,210.803,179.447,159.323
0.300,34.215,2.351,2.351,210.773,179.473,159.317
0.301,34.257,2.359,2.359,210.749,179.501,159.298
0.302,34.309,2.359,2.359,210.734,179.535,159.260
0.303,34.382,2.351,2.351,210.734,179.575,159.201
0.304,34.482,2.333,2.333,210.751,179.625,159.115
0.305,34.619,2.307,2.307,210.789,179.686,158.998
0.306,34.799,2.276,2.276,210.852,179.760,158.848
0.307,35.028,2.245,2.245,210.944,179.851,158.658
0.308,35.312,2.217,2.217,211.069,179.959,158.427
0.309,35.648,2.195,2.195,211.224,180.084,158.157
0.310,36.023,2.183,2.183,211.403,180.221,157.857
0.311,36.425,2.183,2.183,211.599,180.367,157.537
0.313,36.843,2.201,2.201,211.805,180.517,157.207
0.314,37.262,2.239,2.239,212.016,180.666,156.876
0.315,37.671,2.296,2.296,212.223,180.810,156.555
0.316,38.056,2.369,2.369,212.420,180.946,156.252
0.317,38.407,2.453,2.453,212.600,181.069,155.978
0.318,38.709,2.543,2.543,212.756,181.174,155.741
0.319,38.951,2.636,2.636,212.883,181.258,155.553
0.320,39.128,2.726,2.726,212.976,181.318,155.416
0.321,39.246,2.808,2.808,213.039,181.358,155.324
0.322,39.314,2.880,2.880,213.077,181.380,155.272
0.323,39.341,2.936,2.936,213.094,181.387,155.252
0.324,39.349,2.972,2.972,213.094,181.383,155.259
0.325,39.381,2.992,2.992,213.081,181.369,155.284
0.327,39.429,2.997,2.997,213.059,181.350,155.323
0.328,39.486,2.991,2.991,213.032,181.328,155.368
0.329,39.542,2.977,2.977,213.005,181.306,155.412
0.330,39.590,2.957,2.957,212.981,181.287,155.450
0.331,39.624,2.935,2.935,212.965,181.274,155.476
0.332,39.644,2.912,2.912,212.955,181.265,155.491
0.333,39.652,2.893,2.893,212.950,181.261,155.496
0.334,39.654,2.879,2.879,212.950,181.261,155.495
0.335,39.661,2.871,2.871,212.953,181.263,155.489
0.336,39.673,2.869,2.869,212.959,181.267,155.479
0.337,39.687,2.870,2.870,212.966,181.273,155.468
0.338,39.701,2.874,2.874,212.973,181.279,155.458
0.339,39.713,2.881,2.881,212.979,181.286,155.451
0.340,39.720,2.888,2.888,212.983,181.291,155.448
0.342,39.726,2.895,2.895,212.985,181.295,155.451
0.343,39.734,2.900,2.900,212.985,181.298,155.459
0.344,39.745,2.904,2.904,212.983,181.299,155.470
0.345,39.757,2.904,2.904,212.980,181.299,155.481
0.346,39.767,2.903,2.903,212.977,181.298,155.491
0.347,39.774,2.901,2.901,212.974,181.297,155.497
0.348,39.776,2.900,2.900,212.973,181.295,155.498
0.349,39.784,2.900,2.900,212.975,181.293,155.490
0.350,39.803,2.902,2.902,212.979,181.291,155.472
0.351,39.834,2.907,2.907,212.986,181.289,155.442
0.352,39.880,2.917,2.917,212.998,181.287,155.397
0.353,39.941,2.932,2.932,213.014,181.286,155.339
0.354,40.015,2.954,2.954,213.035,181.285,155.268
0.356,40.099,2.981,2.981,213.059,181.283,155.188
0.357,40.191,3.014,3.014,213.088,181.281,155.100
0.358,40.290,3.050,3.050,213.119,181.278,155.006
0.359,40.392,3.090,3.090,213.153,181.275,154.910
0.360,40.497,3.133,3.133,213.191,181.270,154.811
0.361,40.603,3.177,3.177,213.230,181.263,154.714
0.362,40.706,3.221,3.221,213.272,181.255,154.620
0.363,40.806,3.266,3.266,213.315,181.245,154.531
0.364,40.901,3.310,3.310,213.361,181.232,154.448
0.365,40.993,3.352,3.352,213.407,181.217,154.370
0.366,41.081,3.393,3.393,213.454,181.199,154.297
0.367,41.167,3.432,3.432,213.501,181.178,154.228
0.368,41.252,3.469,3.469,213.547,181.154,154.162
0.369,41.335,3.503,3.503,213.593,181.126,154.099
0.371,41.418,3.536,3.536,213.639,181.095,154.037
0.372,41.500,3.565,3.565,213.682,181.060,153.976
0.373,41.584,3.592,3.592,213.724,181.020,153.915
0.374,41.669,3.615,3.615,213.763,180.976,153.854
0.375,41.756,3.635,3.635,213.800,180.928,153.792
0.376,41.844,3.653,3.653,213.836,180.877,153.729
0.377,41.933,3.669,3.669,213.873,180.825,153.667
0.378,42.022,3.683,3.683,213.912,180.774,153.607
0.379,42.109,3.696,3.696,213.955,180.725,153.548
0.380,42.196,3.709,3.709,214.004,180.680,153.492
0.381,42.282,3.722,3.722,214.060,180.641,153.440
0.382,42.368,3.736,3.736,214.125,180.609,153.392
0.383,42.458,3.752,3.752,214.200,180.587,153.350
0.385,42.554,3.769,3.769,214.288,180.575,153.313
0.386,42.659,3.788,3.788,214.389,180.576,153.283
0.387,42.773,3.807,3.807,214.499,180.585,153.257
0.388,42.891,3.827,3.827,214.613,180.599,153.230
0.389,43.010,3.845,3.845,214.727,180.615,153.200
0.390,43.125,3.860,3.860,214.835,180.629,153.163
0.391,43.233,3.873,3.873,214.933,180.637,153.116
0.392,43.335,3.881,3.881,215.014,180.634,153.055
0.393,43.436,3.885,3.885,215.076,180.618,152.976
0.394,43.547,3.883,3.883,215.111,180.584,152.877
0.395,43.683,3.874,3.874,215.116,180.528,152.753
0.396,43.857,3.861,3.861,215.086,180.448,152.601
0.397,44.072,3.846,3.846,215.022,180.343,152.425
0.398,44.322,3.830,3.830,214.932,180.217,152.229
0.400,44.600,3.815,3.815,214.819,180.075,152.018
0.401,44.898,3.803,3.803,214.692,179.918,151.800
0.402,45.208,3.796,3.796,214.554,179.751,151.578
0.403,45.521,3.795,3.795,214.412,179.576,151.359
0.404,45.831,3.804,3.804,214.272,179.398,151.148
0.405,46.128,3.822,3.822,214.140,179.220,150.951
0.406,46.404,3.848,3.848,214.021,179.045,150.773
0.407,46.653,3.881,3.881,213.922,178.876,150.619
0.408,46.872,3.916,3.916,213.843,178.717,150.492
0.409,47.062,3.952,3.952,213.783,178.570,150.386
0.410,47.227,3.986,3.986,213.740,178.438,150.297
0.411,47.368,4.015,4.015,213.710,178.323,150.222
0.412,47.485,4.036,4.036,213.692,178.228,150.157
0.414,47.579,4.047,4.047,213.683,178.155,150.096
0.415,47.656,4.045,4.045,213.680,178.108,150.037
0.416,47.722,4.031,4.031,213.681,178.088,149.974
0.417,47.792,4.005,4.005,213.684,178.098,149.904
0.418,47.884,3.971,3.971,213.686,178.141,149.823
0.419,48.005,3.931,3.931,213.685,178.216,149.728
0.420,48.151,3.887,3.887,213.681,178.317,149.624
0.421,48.315,3.842,3.842,213.676,178.438,149.513
0.422,48.490,3.799,3.799,213.668,178.572,149.400
0.423,48.669,3.759,3.759,213.659,178.712,149.290
0.424,48.844,3.725,3.725,213.648,178.851,149.184
0.425,49.007,3.700,3.700,213.636,178.983,149.088
0.426,49.151,3.681,3.681,213.624,179.100,149.006
0.427,49.268,3.668,3.668,213.610,179.196,148.941
0.429,49.350,3.659,3.659,213.597,179.265,148.897
0.430,49.394,3.652,3.652,213.584,179.301,148.876
0.431,49.409,3.647,3.647,213.571,179.310,148.875
0.432,49.429,3.641,3.641,213.560,179.299,148.887
0.433,49.461,3.632,3.632,213.552,179.275,148.907
0.434,49.498,3.621,3.621,213.546,179.246,148.929
0.435,49.531,3.604,3.604,213.545,179.219,148.948
0.436,49.551,3.582,3.582,213.548,179.202,148.958
0.437,49.561,3.556,3.556,213.557,179.202,148.952
