"T","Distance","Radius","FreeRadius","X","Y","Z"
0.000,0.000,6.807,7.046,213.955,173.953,205.204
0.005,0.047,6.817,7.050,213.994,173.971,205.186
0.010,0.094,6.827,7.055,214.034,173.988,205.168
0.014,0.140,6.838,7.059,214.073,174.005,205.151
0.019,0.185,6.849,7.064,214.112,174.022,205.134
0.024,0.230,6.860,7.070,214.150,174.038,205.119
0.029,0.273,6.871,7.075,214.188,174.052,205.104
0.033,0.315,6.882,7.081,214.226,174.066,205.091
0.038,0.355,6.893,7.086,214.262,174.078,205.080
0.043,0.394,6.904,7.092,214.298,174.089,205.070
0.048,0.430,6.915,7.098,214.333,174.098,205.063
0.052,0.465,6.926,7.105,214.366,174.105,205.058
0.057,0.498,6.936,7.111,214.399,174.110,205.056
0.062,0.529,6.946,7.117,214.430,174.113,205.057
0.067,0.560,6.956,7.124,214.460,174.113,205.061
0.071,0.589,6.965,7.130,214.489,174.111,205.068
0.076,0.619,6.974,7.137,214.516,174.105,205.079
0.081,0.649,6.983,7.143,214.541,174.097,205.093
0.086,0.681,6.990,7.150,214.564,174.085,205.112
0.090,0.716,6.998,7.157,214.586,174.070,205.135
0.095,0.753,7.005,7.163,214.607,174.054,205.160
0.100,0.792,7.013,7.171,214.629,174.035,205.187
0.105,0.832,7.021,7.179,214.651,174.016,205.214
0.110,0.873,7.030,7.188,214.675,173.997,205.242
0.114,0.914,7.035,7.197,214.701,173.979,205.268
0.119,0.955,7.038,7.208,214.730,173.963,205.292
0.124,0.997,7.043,7.220,214.764,173.949,205.312
0.129,1.040,7.051,7.233,214.802,173.938,205.329
0.133,1.086,7.063,7.248,214.846,173.931,205.340
0.138,1.136,7.079,7.264,214.896,173.929,205.344
0.143,1.193,7.101,7.282,214.953,173.932,205.342
0.148,1.260,7.130,7.302,215.018,173.942,205.331
0.152,1.338,7.161,7.325,215.092,173.958,205.310
0.157,1.430,7.189,7.350,215.175,173.982,205.280
0.162,1.537,7.218,7.380,215.269,174.015,205.238
0.167,1.662,7.250,7.413,215.373,174.057,205.184
0.171,1.806,7.286,7.451,215.489,174.109,205.117
0.176,1.966,7.326,7.495,215.615,174.169,205.038
0.181,2.142,7.372,7.545,215.749,174.238,204.949
0.186,2.330,7.426,7.601,215.891,174.313,204.851
0.190,2.528,7.487,7.663,216.039,174.393,204.746
0.195,2.735,7.555,7.732,216.191,174.478,204.634
0.200,2.947,7.629,7.805,216.346,174.565,204.518
0.205,3.163,7.709,7.885,216.501,174.655,204.399
0.210,3.379,7.793,7.968,216.656,174.745,204.278
0.214,3.594,7.882,8.055,216.810,174.835,204.158
0.219,3.805,7.973,8.145,216.960,174.923,204.038
0.224,4.010,8.066,8.235,217.105,175.009,203.922
0.229,4.206,8.159,8.326,217.243,175.091,203.809
0.233,4.391,8.250,8.415,217.374,175.167,203.703
0.238,4.563,8.337,8.500,217.495,175.238,203.603
0.243,4.719,8.419,8.581,217.605,175.301,203.513
0.248,4.857,8.493,8.654,217.703,175.355,203.432
0.252,4.974,8.555,8.720,217.787,175.400,203.363
0.257,5.070,8.603,8.775,217.856,175.434,203.306
0.262,5.148,8.638,8.822,217.912,175.461,203.260
0.267,5.208,8.665,8.861,217.957,175.479,203.224
0.271,5.252,8.685,8.891,217.990,175.490,203.197
0.276,5.283,8.696,8.913,218.014,175.496,203.178
0.281,5.302,8.702,8.928,218.029,175.496,203.167
0.286,5.311,8.702,8.937,218.036,175.493,203.162
0.290,5.317,8.698,8.941,218.038,175.487,203.163
0.295,5.328,8.691,8.939,218.033,175.479,203.168
0.300,5.343,8.682,8.933,218.025,175.470,203.177
0.305,5.362,8.673,8.924,218.013,175.462,203.189
0.310,5.383,8.664,8.911,218.000,175.454,203.203
0.314,5.404,8.656,8.897,217.986,175.449,203.218
0.319,5.425,8.650,8.881,217.972,175.446,203.234
0.324,5.444,8.651,8.864,217.959,175.448,203.248
0.329,5.462,8.659,8.846,217.949,175.454,203.261
0.333,5.479,8.663,8.829,217.943,175.467,203.271
0.338,5.500,8.653,8.814,217.941,175.487,203.278
0.343,5.527,8.635,8.799,217.944,175.512,203.282
0.348,5.559,8.622,8.787,217.952,175.544,203.283
0.352,5.599,8.613,8.776,217.964,175.582,203.280
0.357,5.644,8.606,8.767,217.981,175.623,203.275
0.362,5.696,8.601,8.761,218.003,175.669,203.267
0.367,5.753,8.599,8.758,218.029,175.719,203.256
0.371,5.815,8.600,8.757,218.060,175.772,203.243
0.376,5.882,8.604,8.760,218.095,175.827,203.227
0.381,5.954,8.611,8.767,218.135,175.883,203.209
0.386,6.030,8.622,8.778,218.180,175.941,203.189
0.390,6.109,8.637,8.793,218.228,176.000,203.167
0.395,6.192,8.656,8.812,218.282,176.059,203.143
0.400,6.278,8.679,8.836,218.339,176.117,203.117
0.405,6.367,8.706,8.865,218.401,176.175,203.090
0.410,6.458,8.738,8.899,218.468,176.230,203.061
0.414,6.552,8.774,8.938,218.538,176.284,203.031
0.419,6.647,8.815,8.983,218.613,176.334,203.000
0.424,6.745,8.860,9.033,218.692,176.382,202.968
0.429,6.845,8.907,9.086,218.774,176.429,202.935
0.433,6.948,8.944,9.143,218.860,176.475,202.902
0.438,7.053,8.957,9.201,218.948,176.522,202.870
0.443,7.160,8.957,9.260,219.038,176.570,202.839
0.448,7.269,8.961,9.318,219.130,176.622,202.810
0.452,7.381,8.975,9.376,219.224,176.677,202.782
0.457,7.495,8.995,9.431,219.317,176.737,202.757
0.462,7.612,9.020,9.483,219.411,176.803,202.735
0.467,7.732,9.054,9.532,219.505,176.876,202.716
0.471,7.857,9.096,9.575,219.598,176.957,202.702
0.476,7.986,9.146,9.613,219.690,177.047,202.691
0.481,8.121,9.207,9.645,219.781,177.147,202.686
0.486,8.263,9.283,9.670,219.869,177.259,202.686
0.490,8.414,9.369,9.687,219.954,177.383,202.692
0.495,8.575,9.427,9.695,220.037,177.521,202.704
0.500,8.748,9.431,9.695,220.116,177.673,202.723
0.505,8.933,9.406,9.686,220.191,177.840,202.749
0.510,9.130,9.384,9.670,220.262,178.021,202.781
0.514,9.337,9.356,9.647,220.329,178.214,202.819
0.519,9.553,9.311,9.621,220.393,178.415,202.863
0.524,9.776,9.257,9.592,220.453,178.625,202.910
0.529,10.004,9.212,9.562,220.509,178.840,202.961
0.533,10.235,9.183,9.532,220.562,179.059,203.014
0.538,10.468,9.163,9.501,220.612,179.279,203.069
0.543,10.699,9.150,9.473,220.659,179.498,203.125
0.548,10.928,9.137,9.451,220.703,179.716,203.181
0.552,11.152,9.122,9.431,220.744,179.929,203.237
0.557,11.368,9.107,9.404,220.782,180.135,203.291
0.562,11.576,9.092,9.369,220.817,180.333,203.343
0.567,11.773,9.081,9.335,220.850,180.520,203.393
0.571,11.956,9.075,9.310,220.881,180.695,203.438
0.576,12.124,9.073,9.284,220.909,180.856,203.479
0.581,12.275,9.075,9.253,220.935,181.000,203.515
0.586,12.406,9.080,9.220,220.959,181.126,203.544
0.590,12.518,9.088,9.194,220.980,181.233,203.567
0.595,12.613,9.098,9.176,221.000,181.324,203.584
0.600,12.692,9.109,9.164,221.018,181.400,203.596
0.605,12.757,9.123,9.157,221.033,181.463,203.603
0.610,12.811,9.139,9.156,221.047,181.515,203.605
0.614,12.856,9.154,9.158,221.059,181.559,203.603
0.619,12.894,9.165,9.164,221.069,181.595,203.596
0.624,12.927,9.173,9.172,221.077,181.625,203.587
0.629,12.958,9.184,9.183,221.083,181.653,203.574
0.633,12.988,9.197,9.195,221.087,181.679,203.558
0.638,13.020,9.206,9.209,221.089,181.705,203.540
0.643,13.055,9.208,9.222,221.090,181.734,203.521
0.648,13.094,9.206,9.236,221.088,181.767,203.499
0.652,13.139,9.202,9.248,221.085,181.806,203.477
0.657,13.192,9.198,9.262,221.080,181.852,203.454
0.662,13.254,9.190,9.275,221.074,181.909,203.431
0.667,13.327,9.181,9.281,221.066,181.978,203.407
0.671,13.412,9.170,9.273,221.056,182.060,203.384
0.676,13.509,9.158,9.259,221.044,182.154,203.362
0.681,13.618,9.145,9.248,221.032,182.259,203.341
0.686,13.736,9.133,9.242,221.019,182.375,203.322
0.690,13.862,9.121,9.237,221.006,182.500,203.304
0.695,13.997,9.111,9.234,220.994,182.632,203.288
0.700,14.137,9.104,9.233,220.982,182.772,203.274
0.705,14.283,9.099,9.235,220.971,182.916,203.263
0.710,14.432,9.097,9.240,220.962,183.065,203.254
0.714,14.585,9.099,9.247,220.954,183.218,203.249
0.719,14.739,9.105,9.256,220.949,183.372,203.246
0.724,14.894,9.115,9.268,220.947,183.527,203.248
0.729,15.049,9.130,9.281,220.947,183.681,203.253
0.733,15.202,9.151,9.296,220.952,183.835,203.263
0.738,15.354,9.175,9.314,220.959,183.985,203.277
0.743,15.502,9.204,9.334,220.972,184.132,203.296
0.748,15.646,9.240,9.350,220.989,184.273,203.320
0.752,15.787,9.285,9.355,221.010,184.409,203.349
0.757,15.923,9.326,9.356,221.037,184.537,203.383
0.762,16.055,9.351,9.359,221.069,184.659,203.422
0.767,16.183,9.363,9.363,221.105,184.775,203.465
0.771,16.307,9.368,9.367,221.145,184.883,203.511
0.776,16.427,9.370,9.370,221.188,184.985,203.559
0.781,16.544,9.372,9.372,221.235,185.079,203.609
0.786,16.658,9.374,9.374,221.284,185.168,203.661
0.790,16.767,9.376,9.376,221.336,185.249,203.712
0.795,16.872,9.379,9.379,221.390,185.323,203.764
0.800,16.974,9.384,9.384,221.446,185.391,203.815
0.805,17.070,9.390,9.390,221.502,185.452,203.864
0.810,17.162,9.396,9.396,221.560,185.506,203.911
0.814,17.249,9.404,9.404,221.618,185.553,203.955
0.819,17.331,9.416,9.416,221.676,185.593,203.996
0.824,17.407,9.433,9.433,221.734,185.627,204.033
0.829,17.478,9.442,9.442,221.791,185.654,204.064
0.833,17.543,9.434,9.434,221.847,185.674,204.090
0.838,17.603,9.410,9.410,221.902,185.687,204.110
0.843,17.659,9.373,9.373,221.957,185.695,204.124
0.848,17.714,9.330,9.330,222.011,185.698,204.129
0.852,17.770,9.285,9.285,222.067,185.698,204.127
0.857,17.828,9.238,9.238,222.124,185.696,204.116
0.862,17.891,9.187,9.187,222.184,185.693,204.096
0.867,17.961,9.129,9.129,222.247,185.690,204.066
0.871,18.040,9.060,9.060,222.314,185.689,204.026
0.876,18.128,8.978,8.978,222.387,185.691,203.975
0.881,18.229,8.881,8.881,222.465,185.696,203.912
0.886,18.343,8.769,8.769,222.549,185.707,203.837
0.890,18.471,8.642,8.642,222.641,185.724,203.748
0.895,18.616,8.502,8.502,222.742,185.749,203.647
0.900,18.778,8.345,8.345,222.851,185.782,203.531
0.905,18.960,8.172,8.172,222.970,185.825,203.401
0.910,19.162,7.982,7.982,223.099,185.880,203.255
0.914,19.387,7.774,7.774,223.240,185.946,203.094
0.919,19.635,7.549,7.549,223.393,186.026,202.916
0.924,19.906,7.305,7.305,223.558,186.120,202.722
0.929,20.201,7.046,7.046,223.735,186.227,202.512
0.933,20.516,6.774,6.774,223.922,186.345,202.288
0.938,20.851,6.490,6.490,224.120,186.475,202.050
0.943,21.205,6.197,6.197,224.327,186.616,201.800
0.948,21.575,5.897,5.897,224.542,186.766,201.539
0.952,21.961,5.594,5.594,224.766,186.925,201.267
0.957,22.362,5.290,5.290,224.996,187.092,200.985
0.962,22.775,4.988,4.988,225.233,187.266,200.695
0.967,23.200,4.692,4.692,225.476,187.447,200.397
0.971,23.635,4.407,4.407,225.724,187.633,200.092
0.976,24.078,4.137,4.137,225.976,187.824,199.782
0.981,24.528,3.885,3.885,226.231,188.020,199.466
0.986,24.985,3.657,3.657,226.490,188.218,199.147
0.990,25.445,3.464,3.464,226.751,188.419,198.825
0.995,25.908,3.311,3.311,227.013,188.621,198.501
1.000,26.373,3.179,3.179,227.276,188.825,198.176
