"T","Distance","Radius","FreeRadius","X","Y","Z"
0.000,0.000,1.461,1.461,196.410,183.613,152.235
0.002,0.087,1.545,1.545,196.469,183.675,152.223
0.003,0.172,1.627,1.627,196.528,183.736,152.212
0.005,0.255,1.702,1.702,196.583,183.798,152.202
0.006,0.335,1.768,1.768,196.635,183.858,152.191
0.008,0.411,1.823,1.823,196.681,183.917,152.182
0.010,0.482,1.862,1.862,196.721,183.975,152.174
0.011,0.547,1.885,1.885,196.753,184.031,152.167
0.013,0.606,1.892,1.892,196.775,184.086,152.161
0.014,0.660,1.887,1.887,196.787,184.138,152.157
0.016,0.710,1.875,1.875,196.788,184.188,152.155
0.018,0.759,1.861,1.861,196.777,184.235,152.154
0.019,0.804,1.848,1.848,196.759,184.277,152.155
0.021,0.845,1.841,1.841,196.739,184.313,152.155
0.022,0.876,1.842,1.842,196.724,184.340,152.155
0.024,0.894,1.852,1.852,196.716,184.356,152.154
0.026,0.903,1.870,1.870,196.723,184.360,152.150
0.027,0.931,1.895,1.895,196.749,184.350,152.144
0.029,0.988,1.927,1.927,196.798,184.324,152.133
0.030,1.080,1.967,1.967,196.877,184.279,152.118
0.032,1.211,2.012,2.012,196.989,184.215,152.097
0.034,1.380,2.063,2.063,197.135,184.134,152.070
0.035,1.575,2.117,2.117,197.304,184.043,152.036
0.037,1.785,2.173,2.173,197.488,183.951,151.994
0.038,1.999,2.230,2.230,197.678,183.866,151.943
0.040,2.207,2.285,2.285,197.865,183.795,151.883
0.042,2.401,2.338,2.338,198.039,183.748,151.813
0.043,2.575,2.389,2.389,198.191,183.731,151.731
0.045,2.730,2.441,2.441,198.313,183.753,151.638
0.046,2.880,2.496,2.496,198.394,183.822,151.532
0.048,3.055,2.557,2.557,198.428,183.945,151.413
0.050,3.273,2.626,2.626,198.414,184.118,151.281
0.051,3.533,2.706,2.706,198.362,184.329,151.139
0.053,3.826,2.794,2.794,198.279,184.568,150.989
0.054,4.141,2.884,2.884,198.173,184.821,150.833
0.056,4.467,2.966,2.966,198.053,185.077,150.674
0.058,4.789,3.034,3.034,197.925,185.325,150.512
0.059,5.095,3.078,3.078,197.800,185.553,150.351
0.061,5.372,3.093,3.093,197.683,185.748,150.193
0.062,5.610,3.072,3.072,197.585,185.900,150.039
0.064,5.802,3.024,3.024,197.510,186.000,149.892
0.065,5.958,2.960,2.960,197.458,186.049,149.754
0.067,6.091,2.889,2.889,197.425,186.057,149.625
0.069,6.211,2.823,2.823,197.407,186.032,149.509
0.070,6.326,2.772,2.772,197.398,185.982,149.406
0.072,6.437,2.745,2.745,197.396,185.916,149.317
0.073,6.540,2.742,2.742,197.395,185.841,149.245
0.075,6.633,2.756,2.756,197.392,185.766,149.192
0.077,6.708,2.781,2.781,197.383,185.700,149.158
0.078,6.764,2.811,2.811,197.362,185.650,149.145
0.080,6.809,2.839,2.839,197.327,185.622,149.154
0.081,6.864,2.860,2.860,197.280,185.615,149.181
0.083,6.935,2.870,2.870,197.222,185.628,149.221
0.085,7.023,2.871,2.871,197.156,185.658,149.270
0.086,7.124,2.862,2.862,197.082,185.702,149.324
0.088,7.235,2.845,2.845,197.004,185.759,149.377
0.089,7.351,2.822,2.822,196.923,185.826,149.426
0.091,7.469,2.792,2.792,196.840,185.900,149.466
0.093,7.586,2.757,2.757,196.759,185.981,149.492
0.094,7.701,2.719,2.719,196.680,186.064,149.499
0.096,7.816,2.679,2.679,196.605,186.149,149.487
0.097,7.932,2.638,2.638,196.530,186.235,149.458
0.099,8.053,2.598,2.598,196.455,186.318,149.416
0.101,8.179,2.561,2.561,196.376,186.400,149.362
0.102,8.309,2.527,2.527,196.291,186.477,149.301
0.104,8.444,2.497,2.497,196.197,186.549,149.236
0.105,8.583,2.469,2.469,196.093,186.615,149.170
0.107,8.728,2.442,2.442,195.977,186.673,149.106
0.109,8.881,2.413,2.413,195.845,186.721,149.047
0.110,9.043,2.382,2.382,195.695,186.759,148.997
0.112,9.216,2.348,2.348,195.529,186.788,148.956
0.113,9.400,2.309,2.309,195.349,186.810,148.924
0.115,9.592,2.268,2.268,195.160,186.827,148.900
0.117,9.790,2.224,2.224,194.963,186.843,148.882
0.118,9.990,2.179,2.179,194.764,186.861,148.870
0.120,10.191,2.134,2.134,194.565,186.882,148.863
0.121,10.388,2.090,2.090,194.369,186.910,148.860
0.123,10.581,2.048,2.048,194.181,186.948,148.860
0.125,10.765,2.010,2.010,194.003,186.998,148.862
0.126,10.942,1.978,1.978,193.839,187.063,148.866
0.128,11.111,1.955,1.955,193.689,187.141,148.869
0.129,11.273,1.941,1.941,193.552,187.229,148.872
0.131,11.428,1.939,1.939,193.428,187.322,148.874
0.133,11.575,1.951,1.951,193.316,187.417,148.873
0.134,11.713,1.975,1.975,193.215,187.511,148.871
0.136,11.841,2.004,2.004,193.124,187.600,148.865
0.137,11.956,2.036,2.036,193.042,187.680,148.854
0.139,12.057,2.065,2.065,192.969,187.748,148.839
0.141,12.143,2.087,2.087,192.903,187.800,148.818
0.142,12.216,2.097,2.097,192.845,187.833,148.792
0.144,12.279,2.095,2.095,192.793,187.850,148.760
0.145,12.336,2.084,2.084,192.749,187.852,148.724
0.147,12.390,2.067,2.067,192.712,187.843,148.685
0.149,12.443,2.048,2.048,192.682,187.825,148.644
0.150,12.496,2.030,2.030,192.660,187.801,148.603
0.152,12.546,2.016,2.016,192.646,187.774,148.563
0.153,12.594,2.009,2.009,192.640,187.747,148.524
0.155,12.638,2.008,2.008,192.641,187.722,148.489
0.157,12.676,2.009,2.009,192.651,187.702,148.458
0.158,12.711,2.014,2.014,192.668,187.688,148.431
0.160,12.744,2.018,2.018,192.689,187.678,148.406
0.161,12.778,2.022,2.022,192.709,187.669,148.381
0.163,12.811,2.023,2.023,192.725,187.658,148.354
0.165,12.849,2.019,2.019,192.732,187.642,148.321
0.166,12.896,2.010,2.010,192.728,187.618,148.280
0.168,12.962,1.995,1.995,192.707,187.584,148.228
0.169,13.052,1.971,1.971,192.666,187.535,148.164
0.171,13.173,1.937,1.937,192.600,187.471,148.085
0.173,13.332,1.892,1.892,192.507,187.387,147.988
0.174,13.527,1.838,1.838,192.386,187.284,147.874
0.176,13.751,1.779,1.779,192.244,187.166,147.747
0.177,13.993,1.721,1.721,192.088,187.039,147.612
0.179,14.245,1.668,1.668,191.924,186.906,147.475
0.181,14.496,1.626,1.626,191.759,186.773,147.341
0.182,14.738,1.598,1.598,191.599,186.644,147.213
0.184,14.961,1.588,1.588,191.451,186.524,147.097
0.185,15.155,1.593,1.593,191.322,186.418,146.998
0.187,15.312,1.608,1.608,191.219,186.330,146.921
0.188,15.422,1.629,1.629,191.147,186.264,146.869
0.190,15.486,1.653,1.653,191.106,186.221,146.843
0.192,15.517,1.676,1.676,191.093,186.195,146.835
0.193,15.533,1.694,1.694,191.102,186.183,146.840
0.195,15.562,1.706,1.706,191.129,186.179,146.852
0.196,15.604,1.712,1.712,191.168,186.180,146.865
0.198,15.652,1.712,1.712,191.216,186.182,146.872
0.200,15.704,1.706,1.706,191.268,186.179,146.869
0.201,15.760,1.694,1.694,191.318,186.167,146.848
0.203,15.827,1.676,1.676,191.363,186.143,146.804
0.204,15.917,1.653,1.653,191.399,186.103,146.733
0.206,16.031,1.629,1.629,191.422,186.047,146.635
0.208,16.168,1.607,1.607,191.433,185.981,146.516
0.209,16.323,1.589,1.589,191.431,185.907,146.379
0.211,16.492,1.579,1.579,191.416,185.830,146.231
0.212,16.669,1.579,1.579,191.386,185.753,146.073
0.214,16.851,1.592,1.592,191.341,185.680,145.913
0.216,17.034,1.615,1.615,191.280,185.615,145.753
0.217,17.215,1.647,1.647,191.202,185.562,145.599
0.219,17.392,1.686,1.686,191.108,185.524,145.454
0.220,17.565,1.730,1.730,190.996,185.504,145.323
0.222,17.736,1.778,1.778,190.872,185.500,145.205
0.224,17.905,1.826,1.826,190.740,185.509,145.100
0.225,18.071,1.874,1.874,190.605,185.529,145.007
0.227,18.230,1.920,1.920,190.471,185.556,144.924
0.228,18.380,1.960,1.960,190.344,185.589,144.852
0.230,18.516,1.993,1.993,190.228,185.624,144.789
0.232,18.635,2.016,2.016,190.128,185.659,144.735
0.233,18.732,2.029,2.029,190.050,185.691,144.689
0.235,18.803,2.031,2.031,189.996,185.717,144.650
0.236,18.849,2.025,2.025,189.969,185.735,144.617
0.238,18.878,2.014,2.014,189.963,185.747,144.591
0.240,18.899,2.001,2.001,189.970,185.751,144.572
0.241,18.918,1.988,1.988,189.983,185.750,144.559
0.243,18.935,1.979,1.979,189.996,185.742,144.552
0.244,18.949,1.974,1.974,190.002,185.729,144.551
0.246,18.970,1.971,1.971,189.994,185.710,144.557
0.248,19.009,1.967,1.967,189.965,185.687,144.569
0.249,19.074,1.958,1.958,189.908,185.660,144.587
0.251,19.174,1.942,1.942,189.817,185.629,144.611
0.252,19.308,1.915,1.915,189.691,185.595,144.641
0.254,19.472,1.875,1.876,189.535,185.559,144.678
0.256,19.662,1.825,1.826,189.354,185.523,144.724
0.257,19.871,1.770,1.771,189.156,185.489,144.778
0.259,20.094,1.713,1.714,188.944,185.456,144.842
0.260,20.328,1.659,1.660,188.725,185.427,144.916
0.262,20.566,1.612,1.612,188.503,185.403,145.001
0.264,20.804,1.576,1.576,188.286,185.386,145.098
0.265,21.040,1.553,1.551,188.078,185.376,145.207
0.267,21.269,1.540,1.536,187.884,185.375,145.330
0.268,21.491,1.536,1.531,187.707,185.383,145.464
0.270,21.706,1.539,1.534,187.546,185.396,145.605
0.272,21.912,1.547,1.545,187.401,185.415,145.750
0.273,22.107,1.560,1.561,187.272,185.438,145.895
0.275,22.290,1.574,1.582,187.158,185.462,146.037
0.276,22.458,1.590,1.606,187.060,185.486,146.171
0.278,22.608,1.605,1.632,186.977,185.508,146.294
0.280,22.738,1.619,1.658,186.909,185.528,146.402
0.281,22.843,1.630,1.684,186.855,185.542,146.492
0.283,22.923,1.637,1.708,186.816,185.551,146.560
0.284,22.977,1.640,1.729,186.791,185.554,146.609
0.286,23.011,1.638,1.746,186.776,185.553,146.639
0.288,23.026,1.633,1.757,186.770,185.549,146.652
0.289,23.033,1.627,1.763,186.772,185.542,146.652
0.291,23.049,1.621,1.763,186.780,185.535,146.639
0.292,23.076,1.615,1.755,186.792,185.528,146.616
0.294,23.110,1.612,1.739,186.806,185.523,146.585
0.296,23.150,1.612,1.718,186.820,185.520,146.548
0.297,23.193,1.614,1.694,186.832,185.521,146.507
0.299,23.236,1.619,1.671,186.841,185.526,146.465
0.300,23.278,1.627,1.654,186.845,185.535,146.425
0.302,23.314,1.638,1.646,186.842,185.548,146.391
0.304,23.345,1.652,1.650,186.830,185.564,146.368
0.305,23.376,1.668,1.668,186.806,185.582,146.359
0.307,23.418,1.682,1.694,186.770,185.603,146.368
0.308,23.483,1.692,1.722,186.718,185.624,146.400
0.310,23.575,1.694,1.747,186.650,185.647,146.458
0.312,23.701,1.686,1.763,186.563,185.670,146.547
0.313,23.866,1.663,1.764,186.456,185.693,146.669
0.315,24.069,1.624,1.747,186.328,185.716,146.826
0.316,24.302,1.575,1.716,186.185,185.737,147.008
0.318,24.556,1.522,1.679,186.032,185.757,147.209
0.319,24.822,1.471,1.640,185.872,185.775,147.422
0.321,25.093,1.429,1.608,185.710,185.791,147.638
0.323,25.358,1.403,1.589,185.552,185.805,147.851
0.324,25.609,1.399,1.588,185.402,185.815,148.052
0.326,25.837,1.417,1.606,185.264,185.822,148.234
0.327,26.034,1.450,1.636,185.144,185.825,148.389
0.329,26.191,1.493,1.675,185.045,185.825,148.511
0.331,26.309,1.540,1.716,184.967,185.820,148.600
0.332,26.397,1.586,1.754,184.904,185.813,148.662
0.334,26.465,1.625,1.784,184.852,185.805,148.703
0.335,26.520,1.656,1.804,184.805,185.796,148.731
0.337,26.572,1.682,1.820,184.758,185.788,148.752
0.339,26.629,1.709,1.837,184.705,185.782,148.772
0.340,26.697,1.741,1.859,184.642,185.780,148.797
0.342,26.784,1.784,1.892,184.563,185.782,148.836
0.343,26.899,1.843,1.941,184.464,185.789,148.893
0.345,27.049,1.919,2.009,184.339,185.803,148.974
0.347,27.229,2.010,2.093,184.193,185.822,149.078
0.348,27.431,2.110,2.187,184.032,185.846,149.198
0.350,27.647,2.213,2.286,183.864,185.873,149.330
0.351,27.867,2.312,2.386,183.694,185.902,149.467
0.353,28.083,2.404,2.479,183.530,185.931,149.604
0.355,28.286,2.481,2.563,183.378,185.960,149.736
0.356,28.467,2.543,2.634,183.246,185.986,149.858
0.358,28.618,2.592,2.694,183.140,186.008,149.963
0.359,28.730,2.629,2.743,183.067,186.026,150.046
0.361,28.799,2.656,2.782,183.031,186.037,150.103
0.363,28.834,2.675,2.811,183.026,186.044,150.138
0.364,28.857,2.686,2.831,183.042,186.046,150.153
0.366,28.887,2.692,2.844,183.072,186.044,150.153
0.367,28.923,2.695,2.852,183.107,186.039,150.141
0.369,28.960,2.699,2.859,183.137,186.033,150.123
0.371,28.989,2.705,2.865,183.155,186.026,150.100
0.372,29.012,2.716,2.875,183.150,186.018,150.079
0.374,29.051,2.734,2.891,183.116,186.012,150.061
0.375,29.125,2.761,2.916,183.043,186.006,150.052
0.377,29.240,2.797,2.947,182.928,186.004,150.054
0.379,29.390,2.839,2.985,182.778,186.003,150.064
0.380,29.566,2.887,3.028,182.604,186.003,150.081
0.382,29.758,2.938,3.075,182.413,186.006,150.103
0.383,29.958,2.991,3.124,182.214,186.009,150.128
0.385,30.157,3.044,3.174,182.017,186.014,150.154
0.387,30.345,3.097,3.224,181.830,186.019,150.178
0.388,30.514,3.146,3.271,181.663,186.025,150.200
0.390,30.655,3.192,3.315,181.524,186.032,150.217
0.391,30.757,3.231,3.353,181.422,186.039,150.227
0.393,30.821,3.263,3.383,181.358,186.045,150.230
0.395,30.854,3.286,3.403,181.326,186.051,150.228
0.396,30.863,3.300,3.414,181.320,186.056,150.223
0.398,30.878,3.306,3.419,181.333,186.060,150.217
0.399,30.903,3.306,3.419,181.357,186.062,150.211
0.401,30.933,3.302,3.419,181.387,186.061,150.208
0.403,30.961,3.295,3.421,181.415,186.058,150.209
0.404,30.984,3.287,3.427,181.435,186.052,150.217
0.406,31.003,3.280,3.440,181.441,186.042,150.233
0.407,31.037,3.273,3.458,181.425,186.028,150.259
0.409,31.091,3.269,3.476,181.388,186.011,150.294
0.411,31.163,3.268,3.492,181.333,185.990,150.337
0.412,31.250,3.270,3.503,181.263,185.966,150.383
0.414,31.348,3.275,3.507,181.183,185.939,150.431
0.415,31.452,3.285,3.499,181.094,185.910,150.478
0.417,31.559,3.299,3.482,181.002,185.879,150.522
0.419,31.666,3.315,3.459,180.909,185.845,150.561
0.420,31.767,3.331,3.431,180.818,185.811,150.591
0.422,31.861,3.347,3.404,180.733,185.775,150.611
0.423,31.946,3.360,3.378,180.657,185.738,150.618
0.425,32.022,3.370,3.358,180.590,185.702,150.617
0.427,32.090,3.375,3.345,180.531,185.669,150.614
0.428,32.150,3.376,3.338,180.479,185.639,150.613
0.430,32.203,3.373,3.335,180.432,185.615,150.620
0.431,32.253,3.366,3.336,180.390,185.598,150.642
0.433,32.310,3.356,3.339,180.351,185.590,150.683
0.435,32.385,3.342,3.344,180.315,185.592,150.748
0.436,32.489,3.325,3.349,180.281,185.606,150.845
0.438,32.628,3.304,3.351,180.247,185.634,150.977
0.439,32.807,3.280,3.349,180.213,185.675,151.148
0.441,33.019,3.252,3.339,180.179,185.728,151.350
0.442,33.255,3.219,3.319,180.146,185.791,151.576
0.444,33.506,3.181,3.286,180.115,185.859,151.815
0.446,33.764,3.139,3.239,180.085,185.932,152.061
0.447,34.019,3.093,3.180,180.059,186.004,152.303
0.449,34.262,3.047,3.115,180.035,186.075,152.535
0.450,34.485,3.003,3.050,180.016,186.141,152.747
0.452,34.678,2.965,2.990,180.001,186.199,152.931
0.454,34.834,2.933,2.941,179.991,186.247,153.079
0.455,34.948,2.913,2.908,179.986,186.284,153.187
0.457,35.027,2.902,2.892,179.985,186.310,153.262
0.458,35.079,2.899,2.889,179.988,186.329,153.309
0.460,35.109,2.901,2.894,179.992,186.341,153.336
0.462,35.125,2.905,2.903,179.997,186.348,153.350
0.463,35.134,2.907,2.911,180.002,186.353,153.355
0.465,35.140,2.905,2.913,180.006,186.357,153.360
0.466,35.151,2.897,2.906,180.007,186.361,153.370
0.468,35.174,2.885,2.894,180.005,186.368,153.391
0.470,35.216,2.871,2.878,179.998,186.378,153.431
0.471,35.280,2.857,2.863,179.987,186.395,153.492
0.473,35.364,2.847,2.849,179.973,186.419,153.571
0.474,35.468,2.842,2.842,179.957,186.451,153.669
0.476,35.591,2.844,2.843,179.940,186.494,153.783
0.478,35.732,2.853,2.852,179.924,186.548,153.912
0.479,35.891,2.868,2.868,179.908,186.616,154.055
0.481,36.068,2.887,2.891,179.895,186.699,154.211
0.482,36.262,2.909,2.919,179.886,186.797,154.378
0.484,36.474,2.932,2.950,179.882,186.914,154.555
0.486,36.703,2.956,2.985,179.883,187.049,154.740
0.487,36.946,2.979,3.022,179.890,187.199,154.931
0.489,37.196,3.002,3.058,179.902,187.357,155.125
0.490,37.447,3.025,3.093,179.919,187.517,155.317
0.492,37.692,3.047,3.124,179.939,187.674,155.505
0.494,37.924,3.068,3.149,179.962,187.819,155.684
0.495,38.138,3.089,3.168,179.988,187.948,155.852
0.497,38.326,3.109,3.179,180.015,188.054,156.006
0.498,38.483,3.127,3.183,180.043,188.130,156.141
0.500,38.607,3.142,3.182,180.072,188.171,156.254
0.502,38.701,3.152,3.175,180.100,188.172,156.343
0.503,38.783,3.156,3.166,180.127,188.139,156.413
0.505,38.868,3.153,3.154,180.150,188.079,156.470
0.506,38.962,3.142,3.141,180.168,188.002,156.520
0.508,39.062,3.121,3.125,180.179,187.914,156.567
0.510,39.167,3.091,3.104,180.182,187.824,156.619
0.511,39.272,3.052,3.074,180.175,187.739,156.682
0.513,39.379,3.002,3.033,180.156,187.668,156.760
0.514,39.496,2.941,2.979,180.125,187.618,156.860
0.516,39.634,2.869,2.910,180.078,187.596,156.988
0.518,39.804,2.789,2.826,180.018,187.608,157.146
0.519,40.004,2.705,2.735,179.946,187.648,157.329
0.521,40.227,2.622,2.644,179.867,187.708,157.529
0.522,40.465,2.546,2.559,179.785,187.783,157.739
0.524,40.708,2.482,2.487,179.705,187.866,157.953
0.526,40.948,2.435,2.435,179.631,187.952,158.165
0.527,41.175,2.407,2.405,179.566,188.032,158.367
0.529,41.380,2.394,2.394,179.515,188.102,158.553
0.530,41.554,2.392,2.393,179.481,188.155,158.715
0.532,41.690,2.395,2.398,179.470,188.183,158.847
0.534,41.793,2.398,2.401,179.480,188.186,158.950
0.535,41.881,2.396,2.397,179.508,188.165,159.030
0.537,41.968,2.386,2.380,179.549,188.124,159.096
0.538,42.065,2.367,2.352,179.598,188.064,159.154
0.540,42.174,2.340,2.316,179.650,187.988,159.213
0.542,42.297,2.306,2.278,179.700,187.899,159.280
0.543,42.434,2.266,2.242,179.744,187.799,159.364
0.545,42.590,2.221,2.211,179.777,187.692,159.472
0.546,42.770,2.174,2.190,179.795,187.580,159.612
0.548,42.983,2.125,2.179,179.792,187.464,159.791
0.550,43.228,2.079,2.177,179.769,187.349,160.005
0.551,43.498,2.040,2.180,179.731,187.234,160.248
0.553,43.786,2.011,2.188,179.682,187.122,160.508
0.554,44.082,1.996,2.198,179.624,187.016,160.778
0.556,44.377,1.999,2.208,179.563,186.915,161.048
0.558,44.661,2.021,2.215,179.502,186.823,161.310
0.559,44.924,2.057,2.222,179.445,186.741,161.554
0.561,45.158,2.104,2.229,179.397,186.670,161.771
0.562,45.351,2.155,2.236,179.360,186.614,161.952
0.564,45.498,2.205,2.244,179.338,186.572,162.091
0.565,45.599,2.251,2.254,179.331,186.544,162.188
0.567,45.664,2.287,2.267,179.336,186.527,162.251
0.569,45.700,2.314,2.281,179.351,186.521,162.283
0.570,45.724,2.332,2.297,179.374,186.523,162.292
0.572,45.755,2.343,2.313,179.402,186.531,162.281
0.573,45.795,2.347,2.327,179.432,186.543,162.258
0.575,45.841,2.347,2.340,179.464,186.557,162.228
0.577,45.887,2.342,2.350,179.493,186.571,162.196
0.578,45.927,2.334,2.358,179.519,186.584,162.168
0.580,45.956,2.324,2.362,179.539,186.594,162.149
0.581,45.976,2.314,2.364,179.553,186.601,162.137
0.583,45.987,2.305,2.365,179.562,186.605,162.133
0.585,45.993,2.299,2.363,179.567,186.607,162.135
0.586,46.001,2.297,2.360,179.568,186.607,162.143
0.588,46.014,2.299,2.356,179.565,186.605,162.156
0.589,46.032,2.304,2.351,179.560,186.603,162.173
0.591,46.055,2.310,2.345,179.551,186.599,162.193
0.593,46.080,2.316,2.338,179.541,186.595,162.216
0.594,46.108,2.321,2.331,179.530,186.590,162.241
0.596,46.137,2.322,2.323,179.516,186.587,162.266
0.597,46.169,2.320,2.314,179.500,186.586,162.294
0.599,46.205,2.313,2.305,179.480,186.590,162.324
0.601,46.248,2.302,2.294,179.454,186.601,162.357
0.602,46.300,2.289,2.283,179.422,186.620,162.393
0.604,46.364,2.273,2.270,179.383,186.650,162.432
0.605,46.442,2.256,2.255,179.334,186.693,162.476
0.607,46.538,2.238,2.239,179.275,186.751,162.525
0.609,46.653,2.219,2.221,179.205,186.826,162.578
0.610,46.791,2.201,2.203,179.123,186.919,162.638
0.612,46.949,2.184,2.185,179.029,187.028,162.703
0.613,47.122,2.169,2.170,178.928,187.148,162.777
0.615,47.304,2.157,2.157,178.824,187.272,162.859
0.617,47.489,2.149,2.148,178.721,187.395,162.950
0.618,47.672,2.144,2.144,178.622,187.510,163.053
0.620,47.849,2.141,2.141,178.532,187.611,163.167
0.621,48.019,2.139,2.138,178.454,187.693,163.294
0.623,48.183,2.134,2.134,178.392,187.748,163.436
0.625,48.346,2.126,2.126,178.351,187.772,163.592
0.626,48.520,2.113,2.113,178.334,187.759,163.765
0.628,48.712,2.093,2.093,178.339,187.711,163.950
0.629,48.921,2.068,2.068,178.363,187.635,164.143
0.631,49.144,2.042,2.042,178.402,187.537,164.340
0.633,49.374,2.017,2.017,178.451,187.423,164.534
0.634,49.606,1.997,1.997,178.508,187.300,164.722
0.636,49.830,1.985,1.985,178.569,187.175,164.898
0.637,50.040,1.983,1.983,178.629,187.053,165.058
0.639,50.227,1.992,1.992,178.685,186.940,165.196
0.641,50.382,2.007,2.007,178.733,186.845,165.308
0.642,50.499,2.026,2.026,178.771,186.770,165.390
0.644,50.581,2.046,2.046,178.798,186.715,165.444
0.645,50.634,2.064,2.064,178.817,186.678,165.476
0.647,50.664,2.077,2.077,178.830,186.653,165.490
0.649,50.680,2.083,2.083,178.838,186.640,165.489
0.650,50.693,2.083,2.083,178.843,186.634,165.479
