"T","Distance","Radius","FreeRadius","X","Y","Z"
0.000,0.000,0.830,0.830,-77.727,-53.827,-2.971
0.001,0.339,0.974,0.974,-77.976,-53.998,-2.817
0.002,0.674,1.116,1.116,-78.222,-54.166,-2.665
0.004,1.001,1.254,1.254,-78.462,-54.330,-2.516
0.005,1.314,1.384,1.384,-78.692,-54.488,-2.373
0.006,1.611,1.505,1.505,-78.910,-54.638,-2.238
0.007,1.886,1.614,1.614,-79.111,-54.777,-2.112
0.009,2.136,1.708,1.708,-79.293,-54.904,-1.997
0.010,2.355,1.786,1.786,-79.452,-55.016,-1.895
0.011,2.541,1.846,1.846,-79.585,-55.112,-1.808
0.012,2.688,1.889,1.889,-79.690,-55.188,-1.739
0.014,2.795,1.916,1.916,-79.764,-55.245,-1.687
0.015,2.866,1.930,1.930,-79.813,-55.282,-1.652
0.016,2.905,1.934,1.934,-79.842,-55.302,-1.634
0.017,2.919,1.929,1.929,-79.855,-55.304,-1.630
0.019,2.936,1.918,1.918,-79.859,-55.290,-1.640
0.020,2.973,1.903,1.903,-79.858,-55.262,-1.664
0.021,3.027,1.886,1.886,-79.858,-55.220,-1.698
0.022,3.098,1.868,1.868,-79.864,-55.166,-1.744
0.024,3.185,1.849,1.849,-79.881,-55.101,-1.799
0.025,3.290,1.831,1.831,-79.915,-55.025,-1.862
0.026,3.412,1.812,1.812,-79.967,-54.940,-1.933
0.027,3.552,1.793,1.793,-80.036,-54.846,-2.011
0.029,3.708,1.775,1.775,-80.117,-54.744,-2.095
0.030,3.878,1.757,1.757,-80.209,-54.633,-2.187
0.031,4.061,1.741,1.741,-80.308,-54.514,-2.284
0.032,4.254,1.726,1.726,-80.411,-54.388,-2.387
0.033,4.455,1.714,1.714,-80.516,-54.255,-2.496
0.035,4.663,1.705,1.705,-80.619,-54.115,-2.609
0.036,4.875,1.701,1.701,-80.717,-53.969,-2.728
0.037,5.091,1.701,1.701,-80.808,-53.816,-2.851
0.038,5.308,1.708,1.708,-80.890,-53.659,-2.976
0.040,5.522,1.722,1.722,-80.962,-53.502,-3.103
0.041,5.731,1.743,1.743,-81.026,-53.347,-3.228
0.042,5.930,1.771,1.771,-81.082,-53.199,-3.349
0.043,6.116,1.805,1.805,-81.130,-53.062,-3.464
0.045,6.284,1.840,1.840,-81.169,-52.937,-3.570
0.046,6.431,1.875,1.875,-81.200,-52.830,-3.665
0.047,6.552,1.907,1.907,-81.224,-52.744,-3.747
0.048,6.645,1.934,1.934,-81.241,-52.682,-3.813
0.050,6.705,1.953,1.953,-81.251,-52.647,-3.862
0.051,6.739,1.960,1.960,-81.255,-52.638,-3.894
0.052,6.763,1.957,1.957,-81.256,-52.649,-3.916
0.053,6.793,1.945,1.945,-81.256,-52.675,-3.930
0.055,6.830,1.928,1.928,-81.258,-52.710,-3.943
0.056,6.871,1.908,1.908,-81.264,-52.748,-3.957
0.057,6.916,1.890,1.890,-81.277,-52.784,-3.979
0.058,6.965,1.877,1.877,-81.298,-52.813,-4.012
0.059,7.026,1.871,1.871,-81.331,-52.829,-4.062
0.061,7.111,1.876,1.876,-81.378,-52.827,-4.132
0.062,7.227,1.894,1.894,-81.441,-52.801,-4.226
0.063,7.374,1.922,1.922,-81.517,-52.755,-4.344
0.064,7.547,1.957,1.957,-81.603,-52.694,-4.481
0.066,7.736,1.994,1.994,-81.694,-52.625,-4.632
0.067,7.937,2.030,2.030,-81.788,-52.553,-4.794
0.068,8.140,2.062,2.062,-81.879,-52.485,-4.962
0.069,8.339,2.085,2.085,-81.964,-52.426,-5.132
0.071,8.529,2.096,2.096,-82.039,-52.382,-5.301
0.072,8.705,2.093,2.093,-82.100,-52.360,-5.464
0.073,8.864,2.077,2.077,-82.143,-52.364,-5.617
0.074,9.010,2.053,2.053,-82.165,-52.400,-5.757
0.076,9.150,2.022,2.022,-82.169,-52.464,-5.882
0.077,9.292,1.989,1.989,-82.157,-52.549,-5.995
0.078,9.435,1.957,1.957,-82.133,-52.649,-6.094
0.079,9.578,1.930,1.930,-82.101,-52.759,-6.181
0.081,9.718,1.911,1.911,-82.065,-52.871,-6.256
0.082,9.850,1.903,1.903,-82.026,-52.980,-6.319
0.083,9.968,1.904,1.904,-81.990,-53.079,-6.372
0.084,10.067,1.911,1.911,-81.960,-53.163,-6.414
0.086,10.140,1.921,1.921,-81.938,-53.225,-6.446
0.087,10.184,1.931,1.931,-81.928,-53.262,-6.468
0.088,10.208,1.937,1.937,-81.928,-53.280,-6.485
0.089,10.224,1.936,1.936,-81.938,-53.284,-6.497
0.090,10.244,1.924,1.924,-81.955,-53.282,-6.508
0.092,10.271,1.899,1.899,-81.978,-53.280,-6.521
0.093,10.303,1.860,1.860,-82.005,-53.286,-6.537
0.094,10.347,1.813,1.813,-82.036,-53.306,-6.561
0.095,10.408,1.759,1.759,-82.068,-53.347,-6.594
0.097,10.497,1.703,1.703,-82.101,-53.415,-6.639
0.098,10.619,1.648,1.648,-82.133,-53.517,-6.699
0.099,10.780,1.598,1.598,-82.162,-53.656,-6.774
0.100,10.971,1.555,1.555,-82.186,-53.825,-6.860
0.102,11.184,1.524,1.524,-82.205,-54.015,-6.954
0.103,11.411,1.505,1.505,-82.217,-54.220,-7.050
0.104,11.642,1.496,1.496,-82.220,-54.432,-7.144
0.105,11.870,1.495,1.495,-82.213,-54.642,-7.232
0.107,12.087,1.501,1.501,-82.194,-54.844,-7.309
0.108,12.286,1.511,1.511,-82.162,-55.030,-7.371
0.109,12.460,1.522,1.522,-82.116,-55.192,-7.414
0.110,12.606,1.534,1.534,-82.053,-55.323,-7.434
0.112,12.731,1.545,1.545,-81.974,-55.420,-7.429
0.113,12.849,1.551,1.551,-81.883,-55.488,-7.402
0.114,12.968,1.554,1.554,-81.781,-55.533,-7.359
0.115,13.093,1.553,1.553,-81.673,-55.559,-7.302
0.116,13.225,1.546,1.546,-81.560,-55.572,-7.234
0.118,13.360,1.535,1.535,-81.447,-55.576,-7.160
0.119,13.496,1.517,1.517,-81.335,-55.576,-7.083
0.120,13.627,1.493,1.493,-81.228,-55.577,-7.007
0.121,13.750,1.463,1.463,-81.129,-55.585,-6.936
0.123,13.861,1.425,1.425,-81.040,-55.604,-6.872
0.124,13.961,1.383,1.383,-80.963,-55.636,-6.816
0.125,14.053,1.338,1.338,-80.898,-55.681,-6.768
0.126,14.141,1.292,1.292,-80.846,-55.736,-6.724
0.128,14.227,1.247,1.247,-80.807,-55.802,-6.685
0.129,14.316,1.206,1.206,-80.781,-55.878,-6.648
0.130,14.409,1.169,1.169,-80.767,-55.962,-6.611
0.131,14.508,1.141,1.141,-80.767,-56.055,-6.573
0.133,14.617,1.120,1.120,-80.781,-56.154,-6.533
0.134,14.735,1.108,1.108,-80.809,-56.260,-6.489
0.135,14.864,1.103,1.103,-80.851,-56.371,-6.438
0.136,15.004,1.103,1.103,-80.904,-56.488,-6.383
0.138,15.153,1.108,1.108,-80.965,-56.611,-6.325
0.139,15.309,1.116,1.116,-81.030,-56.741,-6.266
0.140,15.472,1.127,1.127,-81.095,-56.878,-6.207
0.141,15.639,1.138,1.138,-81.157,-57.022,-6.150
0.143,15.809,1.149,1.149,-81.211,-57.175,-6.098
0.144,15.983,1.160,1.160,-81.255,-57.336,-6.052
0.145,16.160,1.170,1.170,-81.284,-57.507,-6.013
0.146,16.343,1.180,1.180,-81.295,-57.687,-5.983
0.147,16.534,1.189,1.189,-81.285,-57.877,-5.965
0.149,16.733,1.198,1.198,-81.256,-58.074,-5.957
0.150,16.939,1.206,1.206,-81.211,-58.274,-5.957
0.151,17.148,1.213,1.213,-81.153,-58.475,-5.965
0.152,17.357,1.220,1.220,-81.087,-58.673,-5.978
0.154,17.562,1.227,1.227,-81.016,-58.864,-5.996
0.155,17.757,1.234,1.234,-80.942,-59.044,-6.016
0.156,17.940,1.243,1.243,-80.871,-59.211,-6.037
0.157,18.105,1.253,1.253,-80.805,-59.361,-6.058
0.159,18.248,1.265,1.265,-80.747,-59.490,-6.077
0.160,18.364,1.280,1.280,-80.701,-59.596,-6.094
0.161,18.457,1.298,1.298,-80.662,-59.678,-6.109
0.162,18.528,1.321,1.321,-80.627,-59.737,-6.126
0.164,18.582,1.347,1.347,-80.592,-59.774,-6.145
0.165,18.630,1.374,1.374,-80.553,-59.789,-6.169
0.166,18.687,1.402,1.402,-80.505,-59.782,-6.201
0.167,18.764,1.429,1.429,-80.446,-59.754,-6.241
0.169,18.867,1.453,1.453,-80.372,-59.705,-6.292
0.170,19.000,1.472,1.472,-80.277,-59.637,-6.357
0.171,19.168,1.485,1.485,-80.159,-59.548,-6.436
0.172,19.370,1.490,1.490,-80.015,-59.442,-6.532
0.173,19.602,1.488,1.488,-79.852,-59.320,-6.640
0.175,19.854,1.480,1.480,-79.673,-59.188,-6.761
0.176,20.122,1.470,1.470,-79.484,-59.048,-6.889
0.177,20.398,1.460,1.460,-79.290,-58.906,-7.025
0.178,20.676,1.452,1.452,-79.097,-58.763,-7.164
0.180,20.948,1.450,1.450,-78.909,-58.625,-7.304
0.181,21.208,1.454,1.454,-78.732,-58.495,-7.443
0.182,21.450,1.469,1.469,-78.571,-58.376,-7.579
0.183,21.667,1.494,1.494,-78.431,-58.273,-7.709
0.185,21.856,1.528,1.528,-78.315,-58.187,-7.831
0.186,22.021,1.567,1.567,-78.220,-58.116,-7.946
0.187,22.163,1.608,1.608,-78.145,-58.059,-8.052
0.188,22.286,1.650,1.650,-78.087,-58.012,-8.150
0.190,22.392,1.689,1.689,-78.044,-57.975,-8.239
0.191,22.482,1.722,1.722,-78.014,-57.945,-8.319
0.192,22.559,1.746,1.746,-77.996,-57.921,-8.389
0.193,22.624,1.760,1.760,-77.986,-57.900,-8.450
0.195,22.679,1.766,1.766,-77.983,-57.880,-8.501
0.196,22.724,1.763,1.763,-77.984,-57.859,-8.542
0.197,22.763,1.756,1.756,-77.988,-57.837,-8.573
0.198,22.797,1.744,1.744,-77.994,-57.813,-8.597
0.200,22.828,1.730,1.730,-77.998,-57.788,-8.615
0.201,22.859,1.715,1.715,-78.000,-57.761,-8.628
0.202,22.890,1.701,1.701,-77.997,-57.732,-8.640
0.203,22.924,1.690,1.690,-77.989,-57.701,-8.651
0.204,22.962,1.682,1.682,-77.972,-57.668,-8.663
0.206,23.008,1.676,1.676,-77.946,-57.634,-8.679
0.207,23.064,1.673,1.673,-77.909,-57.597,-8.699
0.208,23.133,1.674,1.674,-77.859,-57.558,-8.726
0.209,23.214,1.677,1.677,-77.797,-57.518,-8.759
0.211,23.304,1.684,1.684,-77.727,-57.476,-8.796
0.212,23.399,1.693,1.693,-77.651,-57.434,-8.837
0.213,23.498,1.706,1.706,-77.573,-57.392,-8.878
0.214,23.595,1.722,1.722,-77.495,-57.350,-8.920
0.216,23.689,1.738,1.738,-77.420,-57.310,-8.960
0.217,23.776,1.755,1.755,-77.352,-57.271,-8.997
0.218,23.852,1.771,1.771,-77.293,-57.234,-9.028
0.219,23.915,1.786,1.786,-77.246,-57.201,-9.053
0.221,23.963,1.797,1.797,-77.214,-57.170,-9.071
0.222,23.997,1.805,1.805,-77.195,-57.144,-9.081
0.223,24.022,1.808,1.808,-77.186,-57.121,-9.086
0.224,24.041,1.807,1.807,-77.184,-57.102,-9.087
0.226,24.057,1.804,1.804,-77.186,-57.087,-9.086
0.227,24.069,1.801,1.801,-77.189,-57.076,-9.084
0.228,24.076,1.799,1.799,-77.190,-57.069,-9.083
0.229,24.080,1.800,1.800,-77.187,-57.066,-9.083
0.230,24.093,1.807,1.807,-77.175,-57.068,-9.088
0.232,24.118,1.821,1.821,-77.152,-57.074,-9.098
0.233,24.159,1.844,1.844,-77.116,-57.085,-9.114
0.234,24.214,1.875,1.875,-77.068,-57.098,-9.135
0.235,24.280,1.913,1.913,-77.008,-57.112,-9.159
0.237,24.356,1.954,1.954,-76.937,-57.125,-9.185
0.238,24.441,1.998,1.998,-76.857,-57.134,-9.211
0.239,24.533,2.041,2.041,-76.768,-57.137,-9.235
0.240,24.630,2.081,2.081,-76.673,-57.134,-9.255
0.242,24.733,2.116,2.116,-76.572,-57.121,-9.270
0.243,24.843,2.144,2.144,-76.465,-57.096,-9.278
0.244,24.959,2.163,2.163,-76.356,-57.059,-9.276
0.245,25.083,2.174,2.174,-76.243,-57.007,-9.266
0.247,25.214,2.178,2.178,-76.131,-56.944,-9.246
0.248,25.349,2.175,2.175,-76.018,-56.872,-9.220
0.249,25.487,2.166,2.166,-75.909,-56.794,-9.188
0.250,25.625,2.151,2.151,-75.804,-56.713,-9.152
0.252,25.759,2.132,2.132,-75.704,-56.632,-9.113
0.253,25.886,2.107,2.107,-75.613,-56.554,-9.073
0.254,26.003,2.080,2.080,-75.530,-56.481,-9.033
0.255,26.106,2.050,2.050,-75.459,-56.417,-8.995
0.257,26.193,2.021,2.021,-75.400,-56.365,-8.959
0.258,26.262,1.994,1.994,-75.353,-56.324,-8.929
0.259,26.317,1.971,1.971,-75.314,-56.292,-8.906
0.260,26.362,1.954,1.954,-75.280,-56.265,-8.893
0.261,26.405,1.946,1.946,-75.245,-56.241,-8.892
0.263,26.453,1.947,1.947,-75.207,-56.215,-8.905
0.264,26.516,1.959,1.959,-75.160,-56.184,-8.934
0.265,26.602,1.981,1.981,-75.101,-56.145,-8.983
0.266,26.717,2.013,2.013,-75.025,-56.095,-9.053
0.268,26.867,2.054,2.054,-74.930,-56.029,-9.147
0.269,27.056,2.102,2.102,-74.809,-55.945,-9.267
0.270,27.284,2.157,2.157,-74.666,-55.843,-9.412
0.271,27.540,2.216,2.216,-74.504,-55.727,-9.574
0.273,27.817,2.280,2.280,-74.331,-55.603,-9.750
0.274,28.102,2.348,2.348,-74.152,-55.474,-9.931
0.275,28.389,2.417,2.417,-73.974,-55.345,-10.114
0.276,28.665,2.486,2.486,-73.801,-55.220,-10.292
0.278,28.923,2.554,2.554,-73.642,-55.105,-10.458
0.279,29.153,2.619,2.619,-73.500,-55.003,-10.607
0.280,29.344,2.680,2.680,-73.384,-54.919,-10.733
0.281,29.488,2.736,2.736,-73.297,-54.857,-10.830
0.283,29.586,2.784,2.784,-73.240,-54.817,-10.899
0.284,29.645,2.823,2.823,-73.208,-54.796,-10.944
0.285,29.672,2.854,2.854,-73.198,-54.790,-10.969
0.286,29.685,2.878,2.878,-73.204,-54.795,-10.977
0.287,29.708,2.895,2.895,-73.223,-54.810,-10.974
0.289,29.743,2.907,2.907,-73.250,-54.829,-10.963
0.290,29.783,2.914,2.914,-73.280,-54.850,-10.948
0.291,29.822,2.918,2.918,-73.310,-54.870,-10.933
0.292,29.852,2.919,2.919,-73.335,-54.884,-10.923
0.294,29.869,2.918,2.918,-73.351,-54.891,-10.922
0.295,29.881,2.917,2.917,-73.358,-54.891,-10.930
0.296,29.900,2.915,2.915,-73.360,-54.886,-10.948
0.297,29.929,2.912,2.912,-73.359,-54.879,-10.977
0.299,29.970,2.909,2.909,-73.356,-54.872,-11.017
0.300,30.021,2.906,2.906,-73.354,-54.869,-11.068
0.301,30.084,2.904,2.904,-73.357,-54.871,-11.131
0.302,30.160,2.902,2.902,-73.365,-54.881,-11.206
0.304,30.251,2.902,2.902,-73.382,-54.902,-11.293
0.305,30.360,2.902,2.902,-73.409,-54.936,-11.393
0.306,30.489,2.902,2.902,-73.449,-54.984,-11.505
0.307,30.635,2.902,2.902,-73.501,-55.043,-11.629
0.309,30.795,2.899,2.899,-73.561,-55.109,-11.761
0.310,30.962,2.895,2.895,-73.629,-55.178,-11.898
0.311,31.134,2.887,2.887,-73.700,-55.244,-12.039
0.312,31.304,2.874,2.874,-73.775,-55.304,-12.181
0.314,31.470,2.858,2.858,-73.849,-55.352,-12.321
0.315,31.628,2.836,2.836,-73.921,-55.385,-12.457
0.316,31.774,2.810,2.810,-73.989,-55.398,-12.586
0.317,31.910,2.783,2.783,-74.051,-55.386,-12.706
0.318,32.037,2.756,2.756,-74.105,-55.348,-12.815
0.320,32.164,2.730,2.730,-74.153,-55.286,-12.914
0.321,32.293,2.706,2.706,-74.196,-55.204,-13.005
0.322,32.427,2.687,2.687,-74.237,-55.107,-13.088
0.323,32.565,2.674,2.674,-74.276,-55.000,-13.165
0.325,32.706,2.668,2.668,-74.317,-54.886,-13.237
0.326,32.848,2.668,2.668,-74.360,-54.770,-13.306
0.327,32.988,2.672,2.672,-74.408,-54.656,-13.372
0.328,33.125,2.679,2.679,-74.463,-54.548,-13.437
0.330,33.258,2.688,2.688,-74.525,-54.451,-13.502
0.331,33.386,2.698,2.698,-74.597,-54.367,-13.568
0.332,33.511,2.707,2.707,-74.674,-54.295,-13.633
0.333,33.631,2.715,2.715,-74.756,-54.235,-13.698
0.335,33.745,2.719,2.719,-74.838,-54.185,-13.760
0.336,33.854,2.720,2.720,-74.920,-54.144,-13.819
0.337,33.954,2.720,2.720,-74.997,-54.112,-13.874
0.338,34.045,2.717,2.717,-75.069,-54.088,-13.924
0.340,34.123,2.714,2.714,-75.132,-54.069,-13.967
0.341,34.188,2.710,2.710,-75.183,-54.057,-14.004
0.342,34.236,2.705,2.705,-75.221,-54.048,-14.032
0.343,34.267,2.702,2.702,-75.245,-54.043,-14.053
0.344,34.285,2.699,2.699,-75.257,-54.041,-14.066
0.346,34.292,2.697,2.697,-75.259,-54.040,-14.072
0.347,34.297,2.696,2.696,-75.255,-54.042,-14.074
0.348,34.306,2.697,2.697,-75.247,-54.044,-14.071
0.349,34.319,2.698,2.698,-75.236,-54.046,-14.064
0.351,34.332,2.701,2.701,-75.226,-54.048,-14.055
0.352,34.345,2.705,2.705,-75.219,-54.048,-14.045
0.353,34.356,2.710,2.710,-75.217,-54.047,-14.034
0.354,34.369,2.717,2.717,-75.223,-54.043,-14.023
0.356,34.388,2.723,2.723,-75.239,-54.037,-14.014
0.357,34.415,2.728,2.728,-75.265,-54.031,-14.009
0.358,34.453,2.730,2.730,-75.302,-54.025,-14.008
0.359,34.504,2.728,2.728,-75.353,-54.022,-14.015
0.361,34.571,2.719,2.719,-75.418,-54.023,-14.029
0.362,34.655,2.703,2.703,-75.498,-54.028,-14.054
0.363,34.758,2.677,2.677,-75.595,-54.041,-14.090
0.364,34.884,2.640,2.640,-75.709,-54.061,-14.139
0.366,35.035,2.593,2.593,-75.842,-54.091,-14.203
0.367,35.211,2.539,2.539,-75.994,-54.131,-14.282
0.368,35.411,2.481,2.481,-76.163,-54.182,-14.376
0.369,35.626,2.421,2.421,-76.343,-54.239,-14.480
0.371,35.851,2.363,2.363,-76.529,-54.302,-14.589
0.372,36.079,2.310,2.310,-76.716,-54.369,-14.700
0.373,36.302,2.265,2.265,-76.899,-54.437,-14.809
0.374,36.515,2.230,2.230,-77.073,-54.503,-14.911
0.375,36.711,2.207,2.207,-77.233,-54.567,-15.003
0.377,36.882,2.193,2.193,-77.374,-54.626,-15.082
0.378,37.022,2.187,2.187,-77.490,-54.677,-15.142
0.379,37.128,2.186,2.186,-77.578,-54.719,-15.180
0.380,37.201,2.188,2.188,-77.640,-54.752,-15.202
0.382,37.247,2.191,2.191,-77.680,-54.775,-15.210
0.383,37.273,2.194,2.194,-77.702,-54.787,-15.211
0.384,37.281,2.193,2.193,-77.710,-54.790,-15.211
0.385,37.289,2.187,2.187,-77.708,-54.782,-15.213
0.387,37.311,2.180,2.180,-77.701,-54.765,-15.223
0.388,37.349,2.172,2.172,-77.692,-54.736,-15.247
0.389,37.408,2.164,2.164,-77.686,-54.697,-15.290
0.390,37.491,2.160,2.160,-77.686,-54.647,-15.357
0.392,37.603,2.160,2.160,-77.697,-54.587,-15.451
0.393,37.741,2.166,2.166,-77.717,-54.517,-15.568
0.394,37.899,2.181,2.181,-77.748,-54.439,-15.703
0.395,38.074,2.205,2.205,-77.788,-54.355,-15.850
0.397,38.260,2.236,2.236,-77.838,-54.266,-16.006
0.398,38.453,2.272,2.272,-77.897,-54.173,-16.163
0.399,38.647,2.312,2.312,-77.966,-54.078,-16.318
0.400,38.839,2.354,2.354,-78.043,-53.982,-16.465
0.401,39.024,2.394,2.394,-78.129,-53.886,-16.599
0.403,39.200,2.431,2.431,-78.223,-53.793,-16.714
0.404,39.366,2.464,2.464,-78.325,-53.703,-16.809
0.405,39.525,2.489,2.489,-78.434,-53.616,-16.887
0.406,39.681,2.510,2.510,-78.549,-53.533,-16.952
0.408,39.835,2.528,2.528,-78.668,-53.454,-17.010
0.409,39.988,2.545,2.545,-78.790,-53.380,-17.065
0.410,40.142,2.565,2.565,-78.914,-53.309,-17.122
0.411,40.296,2.589,2.589,-79.039,-53.244,-17.185
0.413,40.453,2.619,2.619,-79.163,-53.183,-17.259
0.414,40.615,2.658,2.658,-79.286,-53.127,-17.348
0.415,40.785,2.708,2.708,-79.406,-53.077,-17.457
0.416,40.965,2.768,2.768,-79.523,-53.032,-17.586
0.418,41.152,2.835,2.835,-79.634,-52.992,-17.732
0.419,41.344,2.906,2.906,-79.738,-52.957,-17.888
0.420,41.535,2.978,2.978,-79.835,-52.927,-18.051
0.421,41.723,3.050,3.050,-79.923,-52.902,-18.214
0.423,41.901,3.117,3.117,-80.001,-52.881,-18.374
0.424,42.067,3.178,3.178,-80.068,-52.864,-18.525
0.425,42.215,3.229,3.229,-80.122,-52.852,-18.662
0.426,42.340,3.271,3.271,-80.162,-52.843,-18.780
0.428,42.439,3.307,3.307,-80.187,-52.838,-18.875
0.429,42.512,3.337,3.337,-80.198,-52.837,-18.947
0.430,42.567,3.363,3.363,-80.199,-52.840,-19.002
0.431,42.611,3.388,3.388,-80.192,-52.847,-19.046
0.432,42.651,3.414,3.414,-80.181,-52.858,-19.083
0.434,42.693,3.442,3.442,-80.168,-52.874,-19.119
0.435,42.741,3.474,3.474,-80.157,-52.895,-19.161
0.436,42.800,3.512,3.512,-80.151,-52.921,-19.213
0.437,42.875,3.555,3.555,-80.153,-52.953,-19.282
0.439,42.974,3.602,3.602,-80.167,-52.989,-19.372
0.440,43.102,3.655,3.655,-80.195,-53.032,-19.489
0.441,43.257,3.712,3.712,-80.236,-53.080,-19.631
0.442,43.434,3.773,3.773,-80.287,-53.132,-19.792
0.444,43.625,3.839,3.839,-80.346,-53.186,-19.966
0.445,43.825,3.909,3.909,-80.411,-53.243,-20.146
0.446,44.026,3.982,3.982,-80.477,-53.300,-20.328
0.447,44.223,4.057,4.057,-80.543,-53.356,-20.504
0.449,44.408,4.132,4.132,-80.606,-53.411,-20.670
0.450,44.576,4.204,4.204,-80.662,-53.463,-20.819
0.451,44.718,4.272,4.272,-80.709,-53.511,-20.944
0.452,44.832,4.335,4.335,-80.745,-53.555,-21.042
0.454,44.917,4.390,4.390,-80.769,-53.594,-21.115
0.455,44.980,4.435,4.435,-80.781,-53.628,-21.166
0.456,45.026,4.470,4.470,-80.782,-53.659,-21.200
0.457,45.064,4.496,4.496,-80.771,-53.688,-21.222
0.458,45.101,4.513,4.513,-80.748,-53.714,-21.237
0.460,45.144,4.524,4.524,-80.714,-53.738,-21.248
0.461,45.196,4.530,4.530,-80.669,-53.760,-21.261
0.462,45.259,4.532,4.532,-80.613,-53.783,-21.279
0.463,45.335,4.532,4.532,-80.546,-53.805,-21.308
0.465,45.426,4.532,4.532,-80.469,-53.827,-21.350
0.466,45.530,4.531,4.531,-80.386,-53.850,-21.407
0.467,45.643,4.532,4.532,-80.299,-53.874,-21.477
0.468,45.764,4.533,4.533,-80.214,-53.899,-21.559
0.470,45.891,4.536,4.536,-80.133,-53.925,-21.653
0.471,46.021,4.540,4.540,-80.061,-53.953,-21.758
0.472,46.154,4.547,4.547,-80.002,-53.982,-21.872
0.473,46.289,4.555,4.555,-79.958,-54.013,-21.997
0.475,46.427,4.566,4.566,-79.936,-54.046,-22.129
0.476,46.572,4.579,4.579,-79.937,-54.081,-22.270
0.477,46.726,4.594,4.594,-79.964,-54.118,-22.417
0.478,46.889,4.610,4.610,-80.013,-54.157,-22.567
0.480,47.058,4.625,4.625,-80.080,-54.196,-22.717
0.481,47.230,4.638,4.638,-80.161,-54.236,-22.864
0.482,47.402,4.649,4.649,-80.251,-54.274,-23.005
0.483,47.567,4.655,4.655,-80.346,-54.310,-23.136
0.485,47.723,4.657,4.657,-80.441,-54.344,-23.254
0.486,47.863,4.653,4.653,-80.533,-54.374,-23.355
0.487,47.984,4.644,4.644,-80.617,-54.400,-23.438
0.488,48.079,4.631,4.631,-80.689,-54.421,-23.497
0.489,48.149,4.617,4.617,-80.746,-54.436,-23.534
0.491,48.196,4.603,4.603,-80.788,-54.447,-23.553
0.492,48.223,4.591,4.591,-80.814,-54.453,-23.560
0.493,48.233,4.583,4.583,-80.823,-54.455,-23.561
0.494,48.240,4.580,4.580,-80.817,-54.454,-23.559
0.496,48.263,4.585,4.585,-80.794,-54.451,-23.562
0.497,48.306,4.597,4.597,-80.754,-54.445,-23.575
0.498,48.370,4.615,4.615,-80.696,-54.437,-23.602
0.499,48.458,4.640,4.640,-80.622,-54.427,-23.649
0.501,48.577,4.669,4.669,-80.530,-54.417,-23.722
0.502,48.724,4.703,4.703,-80.421,-54.407,-23.821
0.503,48.896,4.739,4.739,-80.297,-54.395,-23.940
0.504,49.087,4.779,4.779,-80.161,-54.383,-24.073
0.506,49.292,4.819,4.819,-80.015,-54.369,-24.217
0.507,49.506,4.861,4.861,-79.860,-54.355,-24.364
0.508,49.724,4.903,4.903,-79.700,-54.339,-24.511
0.509,49.940,4.944,4.944,-79.536,-54.321,-24.650
0.511,50.150,4.985,4.985,-79.370,-54.302,-24.778
