"T","Distance","Radius","FreeRadius","X","Y","Z"
0.000,0.000,0.890,0.890,188.485,227.718,218.772
0.001,0.128,0.895,0.895,188.558,227.822,218.792
0.002,0.248,0.899,0.899,188.625,227.919,218.810
0.004,0.351,0.905,0.905,188.683,228.003,218.824
0.005,0.428,0.912,0.912,188.725,228.067,218.832
0.006,0.472,0.921,0.921,188.748,228.105,218.831
0.007,0.485,0.932,0.932,188.746,228.110,218.819
0.009,0.538,0.946,0.946,188.714,228.074,218.796
0.010,0.650,0.963,0.963,188.646,227.993,218.757
0.011,0.831,0.984,0.984,188.539,227.859,218.702
0.012,1.086,1.008,1.008,188.388,227.666,218.628
0.014,1.407,1.037,1.037,188.199,227.423,218.539
0.015,1.776,1.071,1.071,187.981,227.143,218.438
0.016,2.176,1.109,1.109,187.744,226.840,218.330
0.017,2.589,1.152,1.152,187.498,226.526,218.219
0.019,2.999,1.200,1.200,187.253,226.217,218.110
0.020,3.387,1.253,1.253,187.019,225.925,218.008
0.021,3.737,1.312,1.312,186.805,225.663,217.916
0.022,4.031,1.375,1.375,186.622,225.446,217.839
0.024,4.252,1.440,1.440,186.479,225.287,217.782
0.025,4.401,1.503,1.503,186.377,225.187,217.744
0.026,4.488,1.563,1.563,186.310,225.136,217.721
0.027,4.529,1.617,1.617,186.272,225.126,217.710
0.029,4.555,1.662,1.662,186.256,225.146,217.706
0.030,4.597,1.696,1.696,186.256,225.188,217.705
0.031,4.653,1.718,1.718,186.266,225.243,217.704
0.032,4.711,1.727,1.727,186.279,225.300,217.698
0.034,4.764,1.726,1.726,186.289,225.350,217.683
0.035,4.808,1.720,1.720,186.290,225.383,217.655
0.036,4.854,1.711,1.711,186.279,225.396,217.612
0.037,4.915,1.702,1.702,186.257,225.389,217.556
0.039,4.992,1.696,1.696,186.227,225.366,217.489
0.040,5.084,1.696,1.696,186.191,225.329,217.412
0.041,5.189,1.706,1.706,186.153,225.281,217.328
0.042,5.302,1.725,1.725,186.113,225.225,217.238
0.044,5.421,1.752,1.752,186.075,225.163,217.144
0.045,5.541,1.786,1.786,186.041,225.098,217.048
0.046,5.660,1.824,1.824,186.013,225.033,216.953
0.047,5.775,1.866,1.866,185.993,224.970,216.859
0.049,5.885,1.909,1.909,185.981,224.910,216.767
0.050,5.991,1.952,1.952,185.975,224.853,216.679
0.051,6.090,1.994,1.994,185.974,224.799,216.595
0.052,6.184,2.033,2.033,185.976,224.750,216.515
0.054,6.270,2.069,2.069,185.982,224.705,216.442
0.055,6.349,2.101,2.101,185.989,224.665,216.374
0.056,6.419,2.131,2.131,185.996,224.630,216.314
0.057,6.479,2.157,2.157,186.003,224.601,216.262
0.059,6.529,2.178,2.178,186.008,224.578,216.218
0.060,6.568,2.196,2.196,186.010,224.561,216.183
0.061,6.598,2.209,2.209,186.011,224.548,216.155
0.062,6.620,2.218,2.218,186.011,224.539,216.136
0.064,6.634,2.223,2.223,186.009,224.533,216.123
0.065,6.642,2.226,2.226,186.005,224.528,216.118
0.066,6.648,2.227,2.227,186.001,224.524,216.119
0.067,6.658,2.227,2.227,185.996,224.519,216.126
0.068,6.673,2.227,2.227,185.990,224.514,216.138
0.070,6.694,2.228,2.228,185.983,224.506,216.156
0.071,6.717,2.230,2.230,185.977,224.495,216.176
0.072,6.741,2.234,2.234,185.973,224.482,216.195
0.073,6.763,2.240,2.240,185.973,224.464,216.208
0.075,6.785,2.248,2.248,185.978,224.443,216.212
0.076,6.816,2.257,2.257,185.990,224.417,216.201
0.077,6.863,2.267,2.267,186.010,224.385,216.172
0.078,6.932,2.279,2.279,186.040,224.349,216.121
0.080,7.030,2.290,2.290,186.082,224.306,216.044
0.081,7.160,2.303,2.303,186.136,224.257,215.936
0.082,7.323,2.315,2.315,186.203,224.202,215.799
0.083,7.509,2.328,2.328,186.279,224.142,215.639
0.085,7.711,2.341,2.341,186.361,224.081,215.465
0.086,7.920,2.354,2.354,186.445,224.018,215.284
0.087,8.128,2.368,2.368,186.527,223.957,215.103
0.088,8.325,2.382,2.382,186.603,223.899,214.931
0.090,8.504,2.398,2.398,186.672,223.846,214.775
0.091,8.655,2.414,2.414,186.727,223.800,214.642
0.092,8.770,2.431,2.431,186.767,223.762,214.541
0.093,8.845,2.447,2.447,186.790,223.734,214.475
0.095,8.887,2.462,2.462,186.798,223.716,214.438
0.096,8.905,2.475,2.475,186.796,223.706,214.424
0.097,8.913,2.483,2.483,186.789,223.705,214.425
0.098,8.928,2.486,2.486,186.779,223.712,214.434
0.100,8.947,2.483,2.483,186.771,223.726,214.443
0.101,8.968,2.472,2.472,186.769,223.747,214.447
0.102,8.999,2.452,2.452,186.777,223.775,214.437
0.103,9.049,2.426,2.426,186.800,223.808,214.407
0.105,9.128,2.396,2.396,186.840,223.847,214.351
0.106,9.235,2.365,2.365,186.895,223.890,214.270
0.107,9.366,2.335,2.335,186.964,223.935,214.168
0.108,9.517,2.310,2.310,187.043,223.981,214.048
0.110,9.683,2.291,2.291,187.130,224.028,213.915
0.111,9.859,2.282,2.282,187.222,224.072,213.772
0.112,10.040,2.284,2.284,187.317,224.114,213.622
0.113,10.223,2.298,2.298,187.410,224.150,213.470
0.115,10.402,2.319,2.319,187.501,224.181,213.318
0.116,10.574,2.347,2.347,187.586,224.205,213.171
0.117,10.735,2.378,2.378,187.663,224.222,213.031
0.118,10.885,2.411,2.411,187.734,224.234,212.899
0.120,11.022,2.441,2.441,187.796,224.241,212.776
0.121,11.146,2.468,2.468,187.849,224.246,212.665
0.122,11.254,2.489,2.489,187.894,224.250,212.567
0.123,11.345,2.503,2.503,187.929,224.254,212.482
0.125,11.418,2.512,2.512,187.954,224.259,212.414
0.126,11.472,2.517,2.517,187.969,224.267,212.363
0.127,11.507,2.519,2.519,187.973,224.279,212.331
0.128,11.530,2.519,2.519,187.968,224.295,212.315
0.130,11.553,2.518,2.518,187.956,224.316,212.313
0.131,11.581,2.518,2.518,187.943,224.339,212.317
0.132,11.610,2.520,2.520,187.930,224.364,212.325
0.133,11.639,2.524,2.524,187.923,224.392,212.331
0.134,11.667,2.530,2.530,187.924,224.419,212.329
0.136,11.700,2.539,2.539,187.938,224.447,212.316
0.137,11.750,2.550,2.550,187.967,224.474,212.286
0.138,11.824,2.565,2.565,188.016,224.499,212.235
0.139,11.929,2.582,2.582,188.085,224.522,212.161
0.141,12.059,2.603,2.603,188.171,224.545,212.066
0.142,12.209,2.626,2.626,188.269,224.568,211.954
0.143,12.375,2.653,2.653,188.376,224.591,211.830
0.144,12.551,2.681,2.681,188.488,224.617,211.697
0.146,12.731,2.712,2.712,188.599,224.647,211.558
0.147,12.910,2.745,2.745,188.707,224.681,211.419
0.148,13.084,2.778,2.778,188.806,224.720,211.282
0.149,13.247,2.811,2.811,188.893,224.765,211.151
0.151,13.398,2.844,2.844,188.964,224.818,211.030
0.152,13.535,2.876,2.876,189.021,224.876,210.919
0.153,13.661,2.907,2.907,189.064,224.938,210.818
0.154,13.777,2.935,2.935,189.097,225.003,210.728
0.156,13.883,2.962,2.962,189.120,225.068,210.648
0.157,13.979,2.986,2.986,189.136,225.132,210.578
0.158,14.064,3.008,3.008,189.146,225.193,210.519
0.159,14.139,3.026,3.026,189.152,225.250,210.470
0.161,14.202,3.040,3.040,189.156,225.300,210.433
0.162,14.253,3.049,3.049,189.159,225.342,210.405
0.163,14.291,3.055,3.055,189.163,225.376,210.388
0.164,14.317,3.057,3.057,189.166,225.400,210.378
0.166,14.332,3.057,3.057,189.168,225.415,210.376
0.167,14.338,3.056,3.056,189.169,225.420,210.379
0.168,14.347,3.054,3.054,189.169,225.415,210.387
0.169,14.367,3.053,3.053,189.168,225.399,210.397
0.171,14.396,3.053,3.053,189.164,225.372,210.409
0.172,14.437,3.056,3.056,189.159,225.333,210.421
0.173,14.489,3.063,3.063,189.151,225.283,210.431
0.174,14.548,3.070,3.070,189.141,225.225,210.440
0.176,14.606,3.077,3.077,189.131,225.169,210.446
0.177,14.653,3.081,3.081,189.122,225.122,210.449
0.178,14.682,3.080,3.080,189.117,225.094,210.448
0.179,14.687,3.073,3.073,189.117,225.092,210.444
0.181,14.722,3.057,3.057,189.124,225.126,210.436
0.182,14.802,3.031,3.031,189.138,225.203,210.424
0.183,14.935,2.993,2.993,189.163,225.333,210.406
0.184,15.131,2.945,2.945,189.199,225.524,210.383
0.186,15.388,2.892,2.892,189.247,225.776,210.355
0.187,15.694,2.836,2.836,189.305,226.075,210.323
0.188,16.034,2.781,2.781,189.370,226.406,210.290
0.189,16.393,2.731,2.731,189.442,226.756,210.256
0.191,16.755,2.688,2.688,189.518,227.108,210.224
0.192,17.106,2.657,2.657,189.596,227.450,210.194
0.193,17.432,2.639,2.639,189.674,227.765,210.170
0.194,17.717,2.634,2.634,189.749,228.039,210.151
0.196,17.947,2.640,2.640,189.821,228.258,210.140
0.197,18.115,2.654,2.654,189.888,228.412,210.137
0.198,18.231,2.674,2.674,189.952,228.508,210.139
0.199,18.312,2.697,2.697,190.019,228.555,210.142
0.200,18.385,2.722,2.722,190.091,228.563,210.142
0.202,18.469,2.745,2.745,190.172,228.542,210.135
0.203,18.573,2.764,2.764,190.266,228.501,210.117
0.204,18.699,2.781,2.781,190.376,228.450,210.083
0.205,18.848,2.795,2.795,190.506,228.399,210.030
0.207,19.025,2.808,2.808,190.660,228.357,209.954
0.208,19.233,2.821,2.821,190.840,228.332,209.852
0.209,19.471,2.835,2.835,191.042,228.326,209.727
0.210,19.731,2.851,2.851,191.261,228.336,209.587
0.212,20.005,2.871,2.871,191.488,228.360,209.435
0.213,20.286,2.895,2.895,191.719,228.394,209.280
0.214,20.563,2.923,2.923,191.947,228.437,209.127
0.215,20.829,2.956,2.956,192.164,228.486,208.982
0.217,21.075,2.992,2.992,192.366,228.539,208.851
0.218,21.292,3.031,3.031,192.544,228.593,208.740
0.219,21.473,3.073,3.073,192.694,228.647,208.656
0.220,21.617,3.117,3.117,192.816,228.697,208.595
0.222,21.733,3.162,3.162,192.913,228.741,208.551
0.223,21.826,3.208,3.208,192.991,228.777,208.515
0.224,21.902,3.254,3.254,193.053,228.802,208.480
0.225,21.969,3.299,3.299,193.105,228.813,208.438
0.227,22.042,3.339,3.339,193.151,228.809,208.383
0.228,22.134,3.374,3.374,193.196,228.787,208.305
0.229,22.259,3.402,3.402,193.243,228.744,208.197
0.230,22.427,3.420,3.420,193.298,228.678,208.053
0.232,22.637,3.428,3.428,193.361,228.594,207.871
0.233,22.876,3.423,3.423,193.429,228.504,207.660
0.234,23.130,3.406,3.406,193.498,228.421,207.430
0.235,23.385,3.383,3.383,193.563,228.360,207.191
0.237,23.634,3.357,3.357,193.622,228.334,206.951
0.238,23.870,3.334,3.334,193.669,228.356,206.721
0.239,24.100,3.318,3.318,193.701,228.440,206.509
0.240,24.344,3.314,3.313,193.714,228.599,206.325
0.242,24.631,3.325,3.325,193.704,228.847,206.178
0.243,24.989,3.358,3.358,193.670,229.187,206.074
0.244,25.414,3.413,3.413,193.614,229.603,206.008
0.245,25.891,3.485,3.485,193.540,230.073,205.973
0.247,26.403,3.568,3.568,193.452,230.577,205.962
0.248,26.928,3.656,3.656,193.354,231.093,205.970
0.249,27.446,3.744,3.745,193.250,231.600,205.988
0.250,27.936,3.827,3.827,193.144,232.078,206.012
0.252,28.377,3.899,3.899,193.040,232.506,206.033
0.253,28.746,3.954,3.954,192.941,232.861,206.047
0.254,29.030,3.990,3.989,192.850,233.130,206.046
0.255,29.235,4.009,4.008,192.768,233.318,206.031
0.257,29.381,4.015,4.014,192.695,233.440,206.003
0.258,29.486,4.011,4.010,192.628,233.510,205.961
0.259,29.574,4.002,4.001,192.567,233.542,205.906
0.260,29.661,3.991,3.990,192.511,233.550,205.840
0.262,29.754,3.981,3.980,192.460,233.549,205.762
0.263,29.854,3.976,3.976,192.412,233.553,205.674
0.264,29.964,3.978,3.979,192.367,233.576,205.577
0.265,30.092,3.989,3.991,192.323,233.630,205.470
0.267,30.242,4.008,4.010,192.281,233.717,205.355
0.268,30.415,4.034,4.037,192.239,233.834,205.233
0.269,30.609,4.068,4.071,192.199,233.973,205.106
0.270,30.818,4.110,4.112,192.159,234.131,204.974
0.271,31.040,4.159,4.160,192.120,234.302,204.839
0.273,31.269,4.214,4.214,192.080,234.482,204.702
0.274,31.501,4.277,4.274,192.041,234.665,204.565
0.275,31.732,4.344,4.339,192.002,234.846,204.427
0.276,31.957,4.413,4.405,191.962,235.021,204.292
0.278,32.173,4.482,4.473,191.922,235.187,204.159
0.279,32.378,4.549,4.539,191.883,235.343,204.032
0.280,32.572,4.611,4.602,191.845,235.491,203.912
0.281,32.753,4.666,4.660,191.809,235.630,203.803
0.283,32.919,4.712,4.711,191.776,235.761,203.705
0.284,33.071,4.747,4.754,191.746,235.883,203.620
0.285,33.207,4.771,4.789,191.720,235.998,203.553
0.286,33.327,4.785,4.815,191.698,236.105,203.503
0.288,33.432,4.792,4.834,191.682,236.204,203.474
0.289,33.524,4.792,4.845,191.672,236.296,203.465
0.290,33.609,4.786,4.850,191.667,236.380,203.474
0.291,33.688,4.777,4.848,191.665,236.456,203.496
0.293,33.763,4.765,4.839,191.667,236.523,203.529
0.294,33.833,4.752,4.825,191.671,236.581,203.568
0.295,33.897,4.739,4.806,191.676,236.629,203.610
0.296,33.953,4.725,4.783,191.682,236.668,203.651
0.298,34.000,4.711,4.758,191.687,236.696,203.687
0.299,34.033,4.697,4.733,191.692,236.713,203.715
0.300,34.052,4.684,4.708,191.694,236.720,203.733
0.301,34.060,4.673,4.685,191.695,236.720,203.741
0.303,34.065,4.662,4.665,191.696,236.714,203.742
0.304,34.073,4.653,4.649,191.695,236.707,203.738
0.305,34.081,4.646,4.638,191.694,236.702,203.732
0.306,34.086,4.639,4.629,191.694,236.702,203.727
0.308,34.095,4.632,4.622,191.695,236.710,203.724
0.309,34.114,4.624,4.615,191.697,236.730,203.727
0.310,34.150,4.614,4.608,191.700,236.764,203.737
0.311,34.205,4.602,4.598,191.706,236.815,203.756
0.313,34.278,4.587,4.586,191.713,236.882,203.784
0.314,34.363,4.567,4.568,191.721,236.960,203.817
0.315,34.455,4.545,4.547,191.727,237.045,203.852
0.316,34.550,4.521,4.524,191.732,237.133,203.887
0.318,34.643,4.497,4.500,191.733,237.221,203.918
0.319,34.730,4.476,4.478,191.729,237.304,203.943
0.320,34.806,4.458,4.459,191.719,237.378,203.959
0.321,34.870,4.445,4.446,191.702,237.440,203.962
0.323,34.923,4.440,4.440,191.677,237.485,203.951
0.324,34.973,4.444,4.444,191.645,237.514,203.927
0.325,35.026,4.456,4.455,191.608,237.533,203.894
0.326,35.080,4.471,4.471,191.568,237.545,203.860
0.328,35.131,4.487,4.486,191.529,237.555,203.828
0.329,35.177,4.498,4.497,191.492,237.569,203.805
0.330,35.217,4.500,4.500,191.460,237.591,203.795
0.331,35.261,4.490,4.490,191.435,237.626,203.805
0.333,35.325,4.463,4.462,191.420,237.678,203.839
0.334,35.424,4.414,4.414,191.418,237.753,203.904
0.335,35.560,4.344,4.344,191.429,237.851,203.998
0.336,35.727,4.258,4.259,191.450,237.966,204.117
0.337,35.915,4.163,4.163,191.481,238.094,204.251
0.339,36.114,4.063,4.063,191.517,238.228,204.394
0.340,36.316,3.965,3.966,191.558,238.362,204.539
0.341,36.509,3.876,3.876,191.600,238.491,204.677
0.342,36.685,3.801,3.801,191.641,238.609,204.801
0.344,36.835,3.746,3.746,191.679,238.711,204.904
0.345,36.948,3.714,3.714,191.711,238.789,204.978
0.346,37.020,3.699,3.699,191.736,238.843,205.019
0.347,37.060,3.696,3.696,191.755,238.876,205.034
0.349,37.083,3.699,3.699,191.766,238.895,205.032
0.350,37.100,3.702,3.702,191.772,238.908,205.022
0.351,37.117,3.698,3.698,191.772,238.920,205.011
0.352,37.136,3.682,3.682,191.767,238.939,205.009
0.354,37.173,3.648,3.648,191.758,238.971,205.024
0.355,37.241,3.592,3.592,191.745,239.023,205.065
0.356,37.351,3.518,3.518,191.728,239.102,205.141
0.357,37.514,3.430,3.430,191.709,239.212,205.259
0.359,37.725,3.334,3.334,191.687,239.354,205.413
0.360,37.975,3.233,3.233,191.662,239.524,205.595
0.361,38.255,3.133,3.133,191.635,239.717,205.797
0.362,38.558,3.037,3.038,191.606,239.930,206.009
0.364,38.874,2.952,2.952,191.575,240.160,206.224
0.365,39.195,2.880,2.880,191.542,240.403,206.432
0.366,39.515,2.822,2.822,191.508,240.656,206.624
0.367,39.826,2.776,2.776,191.472,240.914,206.793
0.369,40.122,2.741,2.741,191.435,241.175,206.930
0.370,40.404,2.717,2.717,191.397,241.434,207.034
0.371,40.672,2.702,2.702,191.356,241.688,207.111
0.372,40.927,2.696,2.696,191.313,241.933,207.165
0.374,41.167,2.696,2.696,191.266,242.165,207.202
0.375,41.390,2.703,2.703,191.214,242.381,207.226
0.376,41.595,2.715,2.715,191.158,242.577,207.242
0.377,41.778,2.730,2.730,191.097,242.749,207.255
0.379,41.939,2.746,2.746,191.029,242.894,207.270
0.380,42.077,2.763,2.763,190.954,243.008,207.292
0.381,42.197,2.779,2.779,190.873,243.091,207.324
0.382,42.306,2.792,2.792,190.790,243.149,207.365
0.384,42.410,2.800,2.800,190.706,243.185,207.415
0.385,42.511,2.803,2.803,190.626,243.205,207.473
0.386,42.611,2.800,2.799,190.551,243.214,207.538
0.387,42.708,2.789,2.788,190.486,243.218,207.611
0.389,42.804,2.770,2.769,190.434,243.222,207.690
0.390,42.897,2.742,2.741,190.396,243.230,207.776
0.391,42.992,2.705,2.704,190.377,243.248,207.867
0.392,43.094,2.658,2.658,190.377,243.279,207.963
0.394,43.207,2.601,2.600,190.393,243.320,208.068
0.395,43.335,2.532,2.532,190.420,243.369,208.182
0.396,43.477,2.453,2.455,190.455,243.423,208.309
0.397,43.633,2.369,2.371,190.492,243.479,208.450
0.399,43.804,2.281,2.284,190.529,243.534,208.608
0.400,43.990,2.193,2.197,190.560,243.586,208.784
0.401,44.194,2.108,2.112,190.581,243.631,208.981
0.402,44.417,2.030,2.033,190.588,243.667,209.201
0.403,44.663,1.961,1.962,190.578,243.691,209.446
0.405,44.927,1.905,1.903,190.552,243.706,209.708
0.406,45.203,1.862,1.857,190.512,243.713,209.982
0.407,45.485,1.830,1.821,190.462,243.715,210.259
0.408,45.765,1.807,1.795,190.403,243.715,210.533
0.410,46.035,1.793,1.779,190.337,243.716,210.795
0.411,46.289,1.783,1.769,190.269,243.719,211.039
0.412,46.517,1.778,1.767,190.199,243.727,211.256
0.413,46.715,1.774,1.769,190.131,243.743,211.441
0.415,46.875,1.771,1.776,190.066,243.768,211.586
0.416,47.001,1.766,1.785,190.008,243.802,211.692
0.417,47.098,1.762,1.796,189.959,243.840,211.767
0.418,47.172,1.756,1.806,189.919,243.879,211.815
0.420,47.226,1.751,1.816,189.893,243.915,211.845
0.421,47.261,1.745,1.822,189.882,243.944,211.862
0.422,47.282,1.740,1.824,189.887,243.962,211.871
0.423,47.309,1.735,1.820,189.912,243.966,211.881
0.425,47.359,1.731,1.810,189.957,243.952,211.896
0.426,47.442,1.727,1.792,190.027,243.916,211.923
0.427,47.557,1.722,1.767,190.118,243.861,211.965
0.428,47.697,1.714,1.739,190.227,243.793,212.022
0.430,47.855,1.702,1.708,190.348,243.722,212.094
0.431,48.024,1.685,1.676,190.477,243.654,212.179
0.432,48.199,1.660,1.644,190.610,243.599,212.279
0.433,48.375,1.627,1.614,190.741,243.563,212.391
0.435,48.552,1.583,1.589,190.865,243.555,212.517
0.436,48.734,1.529,1.567,190.979,243.583,212.656
0.437,48.927,1.468,1.550,191.076,243.654,212.807
0.438,49.143,1.401,1.536,191.157,243.772,212.969
0.440,49.385,1.333,1.526,191.226,243.932,213.137
0.441,49.650,1.265,1.517,191.291,244.125,213.306
0.442,49.934,1.202,1.510,191.357,244.346,213.472
0.443,50.231,1.145,1.504,191.431,244.587,213.630
0.445,50.538,1.097,1.498,191.519,244.841,213.776
0.446,50.849,1.062,1.491,191.628,245.103,213.905
0.447,51.162,1.039,1.486,191.764,245.364,214.011
0.448,51.478,1.028,1.482,191.934,245.619,214.091
0.450,51.800,1.030,1.480,192.140,245.861,214.140
0.451,52.128,1.045,1.482,192.375,246.089,214.163
0.452,52.458,1.072,1.487,192.628,246.301,214.162
0.453,52.786,1.112,1.498,192.888,246.498,214.141
0.455,53.102,1.165,1.514,193.145,246.679,214.105
0.456,53.398,1.230,1.536,193.388,246.842,214.056
0.457,53.666,1.304,1.563,193.606,246.988,214.000
0.458,53.897,1.381,1.592,193.789,247.114,213.939
0.460,54.081,1.459,1.620,193.925,247.222,213.878
0.461,54.214,1.531,1.645,194.007,247.309,213.821
0.462,54.306,1.595,1.665,194.037,247.380,213.770
0.463,54.380,1.645,1.677,194.022,247.439,213.729
0.465,54.458,1.676,1.679,193.971,247.492,213.702
0.466,54.553,1.687,1.669,193.891,247.543,213.692
0.467,54.667,1.679,1.650,193.792,247.598,213.702
0.468,54.800,1.657,1.624,193.679,247.660,213.735
0.469,54.952,1.626,1.594,193.562,247.735,213.796
0.471,55.124,1.591,1.565,193.449,247.829,213.886
0.472,55.322,1.558,1.540,193.347,247.944,214.010
0.473,55.546,1.531,1.521,193.259,248.081,214.163
0.474,55.789,1.514,1.513,193.184,248.233,214.338
0.476,56.043,1.513,1.518,193.121,248.392,214.526
0.477,56.299,1.526,1.534,193.070,248.554,214.718
0.478,56.547,1.550,1.559,193.028,248.711,214.905
0.479,56.777,1.580,1.590,192.995,248.857,215.080
0.481,56.978,1.614,1.622,192.970,248.986,215.232
0.482,57.140,1.646,1.653,192.952,249.090,215.354
0.483,57.252,1.675,1.679,192.940,249.165,215.437
0.484,57.313,1.695,1.697,192.932,249.208,215.480
0.486,57.333,1.704,1.704,192.928,249.224,215.489
0.487,57.347,1.703,1.701,192.927,249.222,215.476
0.488,57.379,1.695,1.691,192.929,249.206,215.448
0.489,57.419,1.682,1.679,192.932,249.183,215.415
0.491,57.457,1.670,1.667,192.936,249.160,215.385
0.492,57.482,1.661,1.660,192.940,249.143,215.368
0.493,57.489,1.659,1.660,192.944,249.138,215.373
0.494,57.527,1.667,1.671,192.945,249.152,215.408
0.496,57.608,1.688,1.697,192.945,249.189,215.480
0.497,57.725,1.723,1.737,192.942,249.245,215.583
0.498,57.870,1.767,1.787,192.937,249.317,215.708
0.499,58.035,1.817,1.843,192.931,249.401,215.851
0.501,58.212,1.871,1.901,192.922,249.492,216.002
0.502,58.391,1.923,1.958,192.911,249.586,216.154
0.503,58.566,1.970,2.009,192.898,249.679,216.302
0.504,58.728,2.010,2.050,192.884,249.768,216.436
0.506,58.868,2.038,2.078,192.868,249.847,216.550
0.507,58.980,2.054,2.091,192.850,249.914,216.639
0.508,59.065,2.060,2.092,192.831,249.968,216.702
