"T","Distance","Radius","FreeRadius","X","Y","Z"
0.000,0.000,0.890,0.890,188.485,227.718,218.772
0.001,0.117,0.888,0.888,188.551,227.813,218.791
0.002,0.227,0.887,0.887,188.613,227.902,218.807
0.003,0.325,0.887,0.887,188.668,227.982,218.821
0.004,0.403,0.889,0.889,188.712,228.047,218.830
0.005,0.457,0.894,0.894,188.741,228.092,218.832
0.007,0.480,0.902,0.902,188.750,228.112,218.827
0.008,0.501,0.915,0.915,188.738,228.102,218.812
0.009,0.566,0.932,0.932,188.699,228.057,218.787
0.010,0.681,0.954,0.954,188.630,227.973,218.748
0.011,0.854,0.983,0.983,188.528,227.844,218.696
0.012,1.089,1.017,1.017,188.389,227.667,218.628
0.013,1.378,1.056,1.056,188.218,227.448,218.548
0.014,1.709,1.100,1.100,188.023,227.197,218.457
0.015,2.067,1.147,1.147,187.811,226.925,218.360
0.016,2.441,1.196,1.196,187.589,226.642,218.260
0.018,2.816,1.248,1.248,187.365,226.357,218.160
0.019,3.181,1.300,1.300,187.146,226.082,218.063
0.020,3.522,1.354,1.354,186.939,225.826,217.973
0.021,3.825,1.406,1.406,186.753,225.600,217.894
0.022,4.079,1.458,1.458,186.594,225.414,217.828
0.023,4.272,1.507,1.507,186.469,225.276,217.778
0.024,4.404,1.554,1.554,186.377,225.187,217.744
0.025,4.485,1.598,1.598,186.315,225.139,217.723
0.026,4.527,1.637,1.637,186.277,225.125,217.712
0.027,4.551,1.671,1.671,186.258,225.138,217.707
0.028,4.584,1.699,1.699,186.254,225.171,217.706
0.030,4.630,1.721,1.721,186.260,225.217,217.705
0.031,4.683,1.735,1.735,186.272,225.268,217.702
0.032,4.735,1.742,1.742,186.283,225.319,217.694
0.033,4.781,1.743,1.743,186.291,225.360,217.677
0.034,4.820,1.740,1.740,186.289,225.387,217.648
0.035,4.863,1.735,1.735,186.277,225.396,217.608
0.036,4.919,1.729,1.729,186.257,225.389,217.556
0.037,4.988,1.725,1.725,186.230,225.369,217.496
0.038,5.070,1.723,1.723,186.199,225.337,217.427
0.039,5.163,1.727,1.727,186.164,225.296,217.352
0.040,5.263,1.736,1.736,186.128,225.247,217.272
0.042,5.370,1.753,1.753,186.092,225.192,217.188
0.043,5.479,1.777,1.777,186.059,225.135,217.101
0.044,5.588,1.806,1.806,186.030,225.075,217.014
0.045,5.695,1.839,1.839,186.007,225.016,216.928
0.046,5.799,1.876,1.876,185.991,224.960,216.843
0.047,5.899,1.914,1.914,185.980,224.905,216.760
0.048,5.994,1.952,1.952,185.975,224.853,216.680
0.049,6.085,1.990,1.990,185.974,224.805,216.603
0.050,6.171,2.026,2.026,185.976,224.759,216.530
0.051,6.251,2.059,2.059,185.980,224.717,216.462
0.053,6.325,2.088,2.088,185.986,224.679,216.399
0.054,6.392,2.115,2.115,185.993,224.646,216.341
0.055,6.451,2.138,2.138,185.999,224.617,216.290
0.056,6.502,2.158,2.158,186.005,224.593,216.246
0.057,6.544,2.175,2.175,186.009,224.573,216.208
0.058,6.578,2.189,2.189,186.011,224.559,216.178
0.059,6.605,2.200,2.200,186.011,224.548,216.154
0.060,6.624,2.209,2.209,186.011,224.539,216.136
0.061,6.637,2.215,2.215,186.009,224.533,216.124
0.062,6.646,2.219,2.219,186.006,224.529,216.118
0.063,6.651,2.221,2.221,186.002,224.525,216.118
0.065,6.658,2.221,2.221,185.998,224.521,216.122
0.066,6.670,2.220,2.220,185.993,224.516,216.132
0.067,6.686,2.218,2.218,185.987,224.511,216.146
0.068,6.706,2.217,2.217,185.981,224.503,216.163
0.069,6.728,2.215,2.215,185.976,224.492,216.182
0.070,6.749,2.214,2.214,185.973,224.479,216.198
0.071,6.769,2.213,2.213,185.973,224.463,216.209
0.072,6.789,2.214,2.214,185.978,224.443,216.212
0.073,6.816,2.216,2.216,185.988,224.420,216.203
0.074,6.856,2.220,2.220,186.005,224.392,216.180
0.075,6.914,2.225,2.225,186.030,224.360,216.139
0.077,6.994,2.232,2.232,186.064,224.323,216.077
0.078,7.099,2.241,2.241,186.109,224.281,215.991
0.079,7.233,2.252,2.252,186.164,224.233,215.879
0.080,7.390,2.265,2.265,186.229,224.181,215.746
0.081,7.564,2.280,2.280,186.300,224.127,215.596
0.082,7.750,2.297,2.297,186.375,224.070,215.436
0.083,7.940,2.316,2.316,186.451,224.014,215.271
0.084,8.129,2.336,2.336,186.525,223.958,215.107
0.085,8.309,2.357,2.357,186.595,223.905,214.949
0.086,8.474,2.376,2.376,186.659,223.856,214.805
0.088,8.619,2.395,2.395,186.713,223.813,214.678
0.089,8.735,2.412,2.412,186.754,223.776,214.576
0.090,8.819,2.427,2.427,186.781,223.746,214.502
0.091,8.872,2.438,2.438,186.795,223.725,214.456
0.092,8.900,2.446,2.446,186.799,223.712,214.431
0.093,8.911,2.451,2.451,186.795,223.705,214.423
0.094,8.920,2.452,2.452,186.787,223.706,214.426
0.095,8.934,2.450,2.450,186.778,223.713,214.434
0.096,8.951,2.446,2.446,186.771,223.726,214.443
0.097,8.971,2.440,2.440,186.769,223.745,214.447
0.098,8.996,2.431,2.431,186.775,223.769,214.441
0.100,9.037,2.420,2.420,186.792,223.798,214.419
0.101,9.099,2.409,2.409,186.822,223.832,214.376
0.102,9.186,2.396,2.396,186.867,223.869,214.311
0.103,9.294,2.382,2.382,186.923,223.909,214.228
0.104,9.421,2.369,2.369,186.990,223.951,214.129
0.105,9.562,2.357,2.357,187.064,223.993,214.016
0.106,9.715,2.347,2.347,187.145,224.035,213.893
0.107,9.876,2.340,2.340,187.229,224.075,213.762
0.108,10.041,2.336,2.336,187.314,224.113,213.626
0.109,10.207,2.337,2.337,187.400,224.146,213.487
0.111,10.371,2.343,2.343,187.483,224.176,213.349
0.112,10.529,2.356,2.356,187.561,224.199,213.214
0.113,10.679,2.373,2.373,187.634,224.216,213.084
0.114,10.820,2.396,2.396,187.701,224.229,212.961
0.115,10.951,2.421,2.421,187.761,224.238,212.845
0.116,11.071,2.447,2.447,187.815,224.243,212.737
0.117,11.179,2.474,2.474,187.861,224.247,212.639
0.118,11.275,2.498,2.498,187.900,224.250,212.553
0.119,11.356,2.520,2.520,187.931,224.254,212.478
0.120,11.422,2.536,2.536,187.954,224.259,212.416
0.121,11.472,2.547,2.547,187.968,224.265,212.368
0.123,11.506,2.550,2.550,187.973,224.276,212.336
0.124,11.529,2.549,2.549,187.970,224.290,212.318
0.125,11.549,2.543,2.543,187.961,224.307,212.313
0.126,11.573,2.535,2.535,187.949,224.327,212.314
0.127,11.599,2.526,2.526,187.937,224.350,212.321
0.128,11.626,2.518,2.518,187.927,224.373,212.327
0.129,11.651,2.512,2.512,187.923,224.398,212.331
0.130,11.677,2.510,2.510,187.926,224.424,212.328
0.131,11.708,2.514,2.514,187.939,224.449,212.315
0.132,11.753,2.525,2.525,187.966,224.473,212.288
0.133,11.819,2.542,2.542,188.009,224.496,212.243
0.135,11.910,2.564,2.564,188.068,224.518,212.178
0.136,12.023,2.590,2.590,188.143,224.538,212.096
0.137,12.154,2.620,2.620,188.229,224.559,212.000
0.138,12.299,2.652,2.652,188.324,224.580,211.892
0.139,12.454,2.686,2.686,188.423,224.602,211.774
0.140,12.616,2.720,2.720,188.525,224.627,211.651
0.141,12.780,2.754,2.754,188.626,224.655,211.525
0.142,12.943,2.787,2.787,188.722,224.686,211.398
0.143,13.100,2.818,2.818,188.812,224.722,211.274
0.144,13.248,2.847,2.847,188.890,224.764,211.155
0.146,13.386,2.875,2.875,188.956,224.811,211.044
0.147,13.512,2.900,2.900,189.010,224.863,210.942
0.148,13.630,2.923,2.923,189.052,224.919,210.848
0.149,13.738,2.943,2.943,189.085,224.977,210.762
0.150,13.838,2.961,2.961,189.110,225.036,210.685
0.151,13.930,2.976,2.976,189.127,225.095,210.617
0.152,14.014,2.989,2.989,189.140,225.153,210.557
0.153,14.089,2.998,2.998,189.147,225.207,210.506
0.154,14.155,3.005,3.005,189.152,225.258,210.464
0.155,14.211,3.010,3.010,189.156,225.303,210.431
0.156,14.257,3.013,3.013,189.159,225.341,210.406
0.158,14.292,3.014,3.014,189.162,225.372,210.389
0.159,14.318,3.014,3.014,189.165,225.396,210.380
0.160,14.334,3.014,3.014,189.167,225.412,210.376
0.161,14.342,3.013,3.013,189.169,225.420,210.378
0.162,14.348,3.011,3.011,189.170,225.419,210.383
0.163,14.360,3.010,3.010,189.169,225.410,210.391
0.164,14.381,3.008,3.008,189.167,225.391,210.401
0.165,14.411,3.005,3.005,189.163,225.364,210.412
0.166,14.450,3.001,3.001,189.158,225.327,210.422
0.167,14.498,2.995,2.995,189.150,225.280,210.432
0.168,14.552,2.987,2.987,189.141,225.227,210.439
0.170,14.605,2.976,2.976,189.132,225.176,210.445
0.171,14.650,2.962,2.962,189.124,225.131,210.448
0.172,14.682,2.945,2.945,189.118,225.100,210.449
0.173,14.693,2.924,2.924,189.117,225.089,210.447
0.174,14.710,2.900,2.900,189.120,225.104,210.441
0.175,14.759,2.874,2.874,189.129,225.152,210.432
0.176,14.849,2.848,2.848,189.145,225.239,210.418
0.177,14.985,2.822,2.822,189.170,225.372,210.401
0.178,15.174,2.797,2.797,189.205,225.557,210.379
0.179,15.413,2.774,2.774,189.249,225.790,210.353
0.181,15.692,2.755,2.755,189.302,226.062,210.325
0.182,15.999,2.741,2.741,189.361,226.362,210.294
0.183,16.322,2.731,2.731,189.426,226.677,210.264
0.184,16.652,2.727,2.727,189.494,226.999,210.234
0.185,16.977,2.726,2.726,189.564,227.314,210.206
0.186,17.285,2.729,2.729,189.635,227.613,210.181
0.187,17.566,2.735,2.735,189.705,227.884,210.161
0.188,17.808,2.743,2.743,189.773,228.117,210.146
0.189,18.002,2.751,2.751,189.837,228.300,210.139
0.190,18.145,2.760,2.760,189.897,228.429,210.137
0.191,18.246,2.768,2.768,189.956,228.511,210.140
0.193,18.320,2.775,2.775,190.016,228.554,210.142
0.194,18.385,2.780,2.780,190.081,228.564,210.143
0.195,18.459,2.785,2.785,190.153,228.548,210.137
0.196,18.548,2.790,2.790,190.234,228.515,210.124
0.197,18.655,2.795,2.795,190.329,228.471,210.099
0.198,18.781,2.802,2.802,190.438,228.424,210.059
0.199,18.928,2.811,2.811,190.566,228.380,210.002
0.200,19.099,2.822,2.822,190.714,228.347,209.924
0.201,19.296,2.837,2.837,190.884,228.330,209.825
0.202,19.516,2.856,2.856,191.071,228.327,209.709
0.204,19.754,2.880,2.880,191.271,228.337,209.580
0.205,20.004,2.907,2.907,191.478,228.358,209.442
0.206,20.258,2.938,2.938,191.688,228.389,209.301
0.207,20.512,2.971,2.971,191.896,228.426,209.161
0.208,20.757,3.008,3.008,192.096,228.470,209.027
0.209,20.988,3.046,3.046,192.286,228.517,208.902
0.210,21.199,3.087,3.087,192.458,228.566,208.793
0.211,21.381,3.128,3.128,192.609,228.615,208.703
0.212,21.533,3.171,3.171,192.736,228.663,208.634
0.213,21.656,3.213,3.213,192.840,228.707,208.584
0.214,21.757,3.256,3.256,192.924,228.746,208.545
0.216,21.840,3.296,3.296,192.994,228.778,208.513
0.217,21.909,3.335,3.335,193.050,228.801,208.482
0.218,21.971,3.370,3.370,193.098,228.812,208.445
0.219,22.035,3.402,3.402,193.141,228.812,208.397
0.220,22.112,3.428,3.428,193.181,228.796,208.332
0.221,22.214,3.448,3.448,193.223,228.764,208.246
0.222,22.347,3.462,3.462,193.269,228.714,208.130
0.223,22.519,3.469,3.469,193.323,228.646,207.983
0.224,22.721,3.469,3.469,193.383,228.566,207.807
0.225,22.943,3.465,3.465,193.445,228.484,207.610
0.226,23.174,3.458,3.458,193.507,228.412,207.400
0.228,23.406,3.451,3.450,193.566,228.359,207.182
0.229,23.632,3.444,3.443,193.619,228.335,206.964
0.230,23.848,3.439,3.439,193.663,228.350,206.753
0.231,24.057,3.439,3.439,193.695,228.415,206.556
0.232,24.273,3.445,3.444,193.712,228.539,206.381
0.233,24.516,3.458,3.458,193.711,228.732,206.234
0.234,24.810,3.478,3.478,193.690,229.004,206.122
0.235,25.164,3.505,3.505,193.649,229.347,206.043
0.236,25.569,3.537,3.537,193.591,229.744,205.993
0.237,26.013,3.571,3.572,193.520,230.181,205.968
0.239,26.481,3.608,3.609,193.438,230.642,205.961
0.240,26.958,3.646,3.646,193.349,231.111,205.968
0.241,27.430,3.683,3.683,193.254,231.573,205.985
0.242,27.879,3.718,3.718,193.158,232.011,206.007
0.243,28.290,3.750,3.750,193.063,232.410,206.028
0.244,28.646,3.778,3.778,192.972,232.754,206.043
0.245,28.933,3.803,3.803,192.888,233.029,206.049
0.246,29.151,3.826,3.825,192.811,233.233,206.043
0.247,29.312,3.846,3.845,192.742,233.377,206.025
0.248,29.429,3.864,3.864,192.678,233.470,205.995
0.249,29.517,3.882,3.881,192.620,233.524,205.955
0.251,29.595,3.900,3.899,192.567,233.549,205.904
0.252,29.675,3.917,3.917,192.517,233.556,205.843
0.253,29.760,3.936,3.936,192.469,233.554,205.773
0.254,29.852,3.955,3.956,192.424,233.555,205.692
0.255,29.953,3.977,3.978,192.380,233.569,205.603
0.256,30.067,4.000,4.002,192.335,233.607,205.504
0.257,30.199,4.025,4.028,192.291,233.672,205.398
0.258,30.350,4.053,4.056,192.247,233.762,205.285
0.259,30.518,4.084,4.087,192.205,233.873,205.168
0.260,30.700,4.117,4.120,192.163,234.003,205.046
0.261,30.894,4.154,4.156,192.124,234.148,204.923
0.263,31.097,4.195,4.195,192.087,234.305,204.799
0.264,31.306,4.239,4.237,192.054,234.470,204.676
0.265,31.517,4.287,4.282,192.024,234.640,204.556
0.266,31.726,4.336,4.330,191.998,234.812,204.439
0.267,31.932,4.388,4.379,191.976,234.983,204.328
0.268,32.129,4.440,4.430,191.959,235.150,204.222
0.269,32.319,4.493,4.483,191.944,235.310,204.123
0.270,32.499,4.545,4.536,191.930,235.463,204.029
0.271,32.670,4.596,4.589,191.915,235.607,203.939
0.272,32.829,4.644,4.643,191.895,235.740,203.854
0.274,32.977,4.690,4.696,191.871,235.861,203.772
0.275,33.113,4.734,4.748,191.839,235.967,203.693
0.276,33.238,4.774,4.799,191.797,236.058,203.617
0.277,33.355,4.813,4.848,191.744,236.131,203.543
0.278,33.467,4.849,4.896,191.678,236.185,203.471
0.279,33.579,4.885,4.941,191.597,236.219,203.400
0.280,33.695,4.919,4.983,191.505,236.235,203.331
0.281,33.816,4.952,5.023,191.405,236.237,203.265
0.282,33.938,4.985,5.059,191.300,236.227,203.202
0.283,34.061,5.017,5.091,191.194,236.207,203.143
0.284,34.181,5.049,5.120,191.090,236.181,203.089
0.286,34.295,5.081,5.145,190.991,236.150,203.041
0.287,34.399,5.111,5.166,190.901,236.119,203.000
0.288,34.489,5.140,5.185,190.824,236.089,202.965
0.289,34.562,5.166,5.201,190.761,236.063,202.938
0.290,34.613,5.191,5.214,190.717,236.044,202.920
0.291,34.646,5.212,5.226,190.689,236.031,202.909
0.292,34.663,5.230,5.235,190.674,236.024,202.904
0.293,34.668,5.244,5.242,190.670,236.021,202.903
0.294,34.672,5.254,5.248,190.673,236.022,202.904
0.295,34.681,5.261,5.253,190.681,236.026,202.907
0.296,34.693,5.266,5.258,190.691,236.032,202.909
0.298,34.704,5.269,5.262,190.699,236.039,202.910
0.299,34.712,5.272,5.266,190.703,236.046,202.907
0.300,34.723,5.274,5.270,190.700,236.053,202.900
0.301,34.742,5.278,5.276,190.687,236.058,202.886
0.302,34.772,5.283,5.283,190.665,236.062,202.867
0.303,34.810,5.291,5.291,190.635,236.065,202.844
0.304,34.854,5.302,5.301,190.599,236.066,202.818
0.305,34.903,5.315,5.313,190.558,236.067,202.791
0.306,34.955,5.331,5.327,190.515,236.067,202.763
0.307,35.007,5.347,5.341,190.469,236.067,202.737
0.309,35.057,5.364,5.356,190.425,236.066,202.714
0.310,35.105,5.381,5.372,190.381,236.065,202.694
0.311,35.147,5.397,5.389,190.341,236.065,202.681
0.312,35.183,5.411,5.405,190.306,236.064,202.673
0.313,35.214,5.423,5.421,190.275,236.064,202.671
0.314,35.242,5.431,5.437,190.247,236.064,202.669
0.315,35.270,5.438,5.453,190.220,236.064,202.663
0.316,35.302,5.444,5.470,190.191,236.064,202.650
0.317,35.342,5.450,5.489,190.160,236.063,202.625
0.318,35.396,5.459,5.511,190.124,236.062,202.583
0.319,35.471,5.471,5.537,190.082,236.060,202.522
0.321,35.570,5.489,5.567,190.032,236.057,202.437
0.322,35.699,5.513,5.603,189.972,236.053,202.322
0.323,35.862,5.545,5.646,189.901,236.047,202.176
0.324,36.057,5.586,5.695,189.818,236.040,201.999
0.325,36.278,5.635,5.751,189.727,236.032,201.798
0.326,36.516,5.690,5.811,189.629,236.022,201.582
0.327,36.764,5.748,5.871,189.527,236.009,201.356
0.328,37.013,5.806,5.930,189.423,235.995,201.130
0.329,37.257,5.862,5.983,189.320,235.977,200.910
0.330,37.486,5.912,6.030,189.220,235.958,200.704
0.332,37.695,5.954,6.067,189.126,235.935,200.519
0.333,37.876,5.985,6.090,189.040,235.909,200.363
0.334,38.020,6.002,6.099,188.964,235.880,200.243
0.335,38.130,6.004,6.091,188.898,235.847,200.161
0.336,38.214,5.995,6.070,188.842,235.807,200.113
0.337,38.287,5.975,6.038,188.791,235.760,200.091
0.338,38.361,5.948,5.998,188.744,235.703,200.090
0.339,38.446,5.915,5.953,188.698,235.633,200.102
0.340,38.544,5.879,5.905,188.650,235.550,200.123
0.341,38.658,5.843,5.858,188.598,235.451,200.145
0.342,38.790,5.808,5.815,188.540,235.334,200.162
0.344,38.943,5.778,5.777,188.472,235.197,200.168
0.345,39.121,5.753,5.747,188.393,235.038,200.158
0.346,39.326,5.734,5.725,188.301,234.857,200.126
0.347,39.555,5.719,5.710,188.198,234.659,200.076
0.348,39.803,5.709,5.700,188.086,234.447,200.011
0.349,40.063,5.703,5.694,187.968,234.228,199.934
0.350,40.331,5.699,5.693,187.846,234.005,199.849
0.351,40.600,5.699,5.694,187.723,233.785,199.758
0.352,40.863,5.699,5.697,187.600,233.571,199.666
0.353,41.115,5.701,5.701,187.480,233.368,199.576
0.354,41.350,5.704,5.705,187.365,233.182,199.491
0.356,41.561,5.707,5.709,187.258,233.017,199.414
0.357,41.744,5.710,5.713,187.162,232.876,199.348
0.358,41.900,5.714,5.716,187.077,232.759,199.290
0.359,42.032,5.717,5.720,187.006,232.661,199.238
0.360,42.143,5.721,5.723,186.950,232.579,199.188
0.361,42.236,5.725,5.727,186.913,232.510,199.138
0.362,42.317,5.729,5.730,186.895,232.451,199.084
0.363,42.397,5.733,5.733,186.898,232.399,199.024
0.364,42.487,5.736,5.736,186.925,232.351,198.953
0.365,42.596,5.739,5.738,186.978,232.303,198.870
0.367,42.733,5.741,5.740,187.058,232.252,198.772
0.368,42.901,5.740,5.739,187.165,232.196,198.655
0.369,43.097,5.737,5.735,187.293,232.134,198.520
0.370,43.311,5.730,5.728,187.431,232.069,198.370
0.371,43.536,5.718,5.717,187.568,232.001,198.205
0.372,43.763,5.702,5.701,187.693,231.932,198.028
0.373,43.988,5.680,5.680,187.796,231.864,197.841
0.374,44.207,5.652,5.652,187.867,231.798,197.644
0.375,44.422,5.616,5.617,187.894,231.735,197.440
0.376,44.640,5.575,5.577,187.868,231.677,197.231
0.377,44.877,5.528,5.530,187.777,231.626,197.019
0.379,45.151,5.477,5.479,187.612,231.582,196.804
0.380,45.469,5.421,5.423,187.380,231.545,196.590
0.381,45.827,5.361,5.363,187.093,231.515,196.379
0.382,46.214,5.298,5.300,186.767,231.491,196.172
0.383,46.619,5.232,5.233,186.415,231.473,195.972
0.384,47.030,5.164,5.164,186.051,231.458,195.781
0.385,47.434,5.095,5.093,185.689,231.448,195.602
0.386,47.817,5.026,5.022,185.344,231.440,195.436
0.387,48.165,4.959,4.952,185.030,231.434,195.286
0.388,48.465,4.895,4.886,184.760,231.429,195.154
0.389,48.705,4.835,4.825,184.548,231.425,195.043
0.391,48.882,4.781,4.771,184.396,231.422,194.951
0.392,49.007,4.735,4.726,184.295,231.419,194.878
0.393,49.090,4.697,4.692,184.235,231.419,194.820
0.394,49.142,4.670,4.670,184.208,231.421,194.777
0.395,49.174,4.654,4.661,184.204,231.427,194.745
0.396,49.200,4.648,4.664,184.213,231.437,194.723
0.397,49.225,4.649,4.675,184.228,231.451,194.709
0.398,49.249,4.655,4.692,184.238,231.472,194.701
0.399,49.276,4.663,4.710,184.234,231.498,194.696
0.400,49.319,4.671,4.728,184.208,231.532,194.693
0.402,49.386,4.677,4.742,184.155,231.572,194.689
0.403,49.474,4.679,4.750,184.079,231.617,194.684
0.404,49.581,4.673,4.747,183.983,231.663,194.677
0.405,49.702,4.658,4.732,183.871,231.709,194.667
0.406,49.834,4.633,4.705,183.747,231.752,194.653
0.407,49.974,4.603,4.669,183.614,231.791,194.634
0.408,50.118,4.567,4.625,183.476,231.822,194.608
0.409,50.263,4.528,4.577,183.336,231.844,194.575
0.410,50.407,4.488,4.527,183.198,231.853,194.535
0.411,50.549,4.450,4.477,183.066,231.849,194.485
0.412,50.688,4.414,4.430,182.942,231.830,194.425
0.414,50.828,4.383,4.388,182.823,231.800,194.357
0.415,50.969,4.359,4.355,182.709,231.763,194.283
0.416,51.113,4.342,4.330,182.596,231.723,194.203
0.417,51.259,4.332,4.312,182.483,231.685,194.118
0.418,51.407,4.325,4.301,182.369,231.651,194.031
0.419,51.557,4.322,4.295,182.250,231.627,193.942
0.420,51.711,4.321,4.294,182.125,231.615,193.853
0.421,51.871,4.319,4.296,181.992,231.621,193.765
0.422,52.039,4.317,4.299,181.849,231.648,193.680
0.423,52.221,4.313,4.304,181.695,231.699,193.598
0.425,52.413,4.304,4.308,181.534,231.769,193.521
0.426,52.612,4.292,4.311,181.369,231.853,193.449
0.427,52.813,4.276,4.314,181.203,231.948,193.383
0.428,53.012,4.258,4.316,181.042,232.048,193.325
0.429,53.202,4.239,4.319,180.888,232.148,193.274
0.430,53.379,4.221,4.322,180.746,232.243,193.231
0.431,53.536,4.204,4.326,180.619,232.330,193.198
0.432,53.667,4.191,4.332,180.512,232.402,193.175
0.433,53.768,4.182,4.340,180.427,232.455,193.163
0.434,53.834,4.179,4.349,180.368,232.486,193.162
0.435,53.873,4.181,4.361,180.332,232.498,193.169
0.437,53.894,4.189,4.374,180.315,232.495,193.181
0.438,53.913,4.200,4.387,180.311,232.482,193.194
0.439,53.935,4.211,4.398,180.317,232.464,193.206
0.440,53.957,4.222,4.406,180.327,232.445,193.211
0.441,53.974,4.229,4.409,180.337,232.432,193.208
0.442,53.992,4.231,4.405,180.342,232.428,193.192
0.443,54.026,4.226,4.394,180.339,232.438,193.160
0.444,54.088,4.212,4.374,180.321,232.467,193.108
0.445,54.185,4.188,4.343,180.287,232.520,193.033
0.446,54.316,4.154,4.303,180.235,232.594,192.939
