"T","Distance","Radius","FreeRadius","X","Y","Z"
0.000,0.000,1.262,1.262,194.754,180.702,153.440
0.002,0.039,1.254,1.254,194.790,180.715,153.445
0.004,0.076,1.247,1.247,194.825,180.727,153.449
0.005,0.111,1.243,1.243,194.858,180.738,153.452
0.007,0.141,1.243,1.243,194.887,180.746,153.452
0.009,0.165,1.247,1.247,194.911,180.750,153.449
0.011,0.184,1.259,1.259,194.929,180.750,153.443
0.013,0.201,1.276,1.276,194.939,180.745,153.431
0.014,0.221,1.297,1.297,194.941,180.733,153.415
0.016,0.251,1.319,1.319,194.933,180.715,153.392
0.018,0.295,1.338,1.338,194.914,180.688,153.363
0.020,0.355,1.353,1.353,194.882,180.653,153.325
0.021,0.434,1.359,1.359,194.837,180.609,153.280
0.023,0.532,1.358,1.358,194.777,180.553,153.225
0.025,0.652,1.352,1.352,194.701,180.487,153.160
0.027,0.793,1.343,1.343,194.609,180.410,153.085
0.029,0.951,1.335,1.335,194.506,180.326,153.001
0.030,1.120,1.329,1.329,194.394,180.238,152.909
0.032,1.297,1.328,1.328,194.278,180.150,152.809
0.034,1.475,1.336,1.336,194.161,180.066,152.704
0.036,1.652,1.358,1.358,194.047,179.989,152.593
0.038,1.822,1.398,1.398,193.940,179.923,152.478
0.039,1.984,1.459,1.459,193.842,179.871,152.360
0.041,2.134,1.547,1.547,193.759,179.837,152.240
0.043,2.272,1.656,1.656,193.693,179.825,152.119
0.045,2.402,1.766,1.766,193.649,179.838,151.998
0.046,2.531,1.859,1.859,193.630,179.880,151.877
0.048,2.671,1.914,1.914,193.640,179.954,151.758
0.050,2.836,1.912,1.912,193.681,180.064,151.642
0.052,3.033,1.835,1.835,193.754,180.208,151.530
0.054,3.261,1.697,1.697,193.854,180.381,151.421
0.055,3.518,1.523,1.523,193.979,180.580,151.316
0.057,3.799,1.344,1.344,194.123,180.799,151.216
0.059,4.100,1.186,1.186,194.284,181.035,151.121
0.061,4.416,1.078,1.078,194.459,181.283,151.031
0.063,4.742,1.039,1.039,194.642,181.539,150.947
0.064,5.072,1.059,1.059,194.832,181.797,150.869
0.066,5.400,1.124,1.124,195.023,182.055,150.798
0.068,5.722,1.217,1.217,195.214,182.306,150.733
0.070,6.032,1.324,1.324,195.399,182.548,150.676
0.071,6.324,1.428,1.428,195.575,182.775,150.626
0.073,6.593,1.522,1.522,195.739,182.984,150.585
0.075,6.833,1.608,1.608,195.888,183.170,150.551
0.077,7.047,1.686,1.686,196.023,183.334,150.526
0.079,7.236,1.760,1.760,196.143,183.479,150.509
0.080,7.403,1.830,1.830,196.251,183.605,150.499
0.082,7.548,1.899,1.899,196.347,183.714,150.496
0.084,7.676,1.968,1.968,196.433,183.809,150.500
0.086,7.787,2.034,2.034,196.509,183.890,150.511
0.088,7.885,2.099,2.099,196.576,183.959,150.528
0.089,7.972,2.160,2.160,196.636,184.017,150.551
0.091,8.050,2.218,2.218,196.690,184.067,150.579
0.093,8.123,2.272,2.272,196.738,184.110,150.613
0.095,8.192,2.321,2.321,196.781,184.147,150.652
0.096,8.260,2.365,2.365,196.821,184.180,150.696
0.098,8.329,2.402,2.402,196.859,184.211,150.744
0.100,8.399,2.433,2.433,196.896,184.241,150.796
0.102,8.470,2.457,2.457,196.931,184.269,150.851
0.104,8.542,2.474,2.474,196.965,184.295,150.908
0.105,8.614,2.485,2.485,196.999,184.320,150.967
0.107,8.687,2.493,2.493,197.033,184.342,151.027
0.109,8.758,2.498,2.498,197.066,184.362,151.087
0.111,8.829,2.503,2.503,197.101,184.380,151.146
0.113,8.898,2.509,2.509,197.136,184.395,151.204
0.114,8.965,2.513,2.513,197.172,184.407,151.259
0.116,9.030,2.515,2.515,197.210,184.416,151.311
0.118,9.093,2.511,2.511,197.249,184.422,151.359
0.120,9.153,2.498,2.498,197.291,184.425,151.403
0.121,9.211,2.475,2.475,197.335,184.424,151.441
0.123,9.268,2.440,2.440,197.382,184.419,151.473
0.125,9.325,2.396,2.396,197.432,184.410,151.498
0.127,9.384,2.348,2.348,197.486,184.397,151.517
0.129,9.445,2.298,2.298,197.544,184.380,151.529
0.130,9.512,2.251,2.251,197.606,184.358,151.535
0.132,9.584,2.211,2.211,197.673,184.330,151.535
0.134,9.664,2.179,2.179,197.746,184.297,151.528
0.136,9.752,2.155,2.155,197.824,184.259,151.514
0.138,9.849,2.139,2.139,197.908,184.215,151.494
0.139,9.956,2.130,2.130,197.998,184.164,151.467
0.141,10.074,2.127,2.127,198.096,184.108,151.434
0.143,10.202,2.132,2.132,198.200,184.044,151.395
0.145,10.343,2.140,2.140,198.312,183.974,151.348
0.146,10.495,2.151,2.151,198.433,183.896,151.296
0.148,10.660,2.162,2.162,198.561,183.811,151.237
0.150,10.835,2.171,2.171,198.696,183.720,151.172
0.152,11.018,2.174,2.174,198.836,183.624,151.104
0.154,11.205,2.172,2.172,198.978,183.526,151.032
0.155,11.394,2.167,2.167,199.121,183.426,150.959
0.157,11.583,2.162,2.162,199.264,183.326,150.886
0.159,11.770,2.160,2.160,199.403,183.227,150.813
0.161,11.950,2.165,2.165,199.538,183.130,150.741
0.163,12.122,2.180,2.180,199.667,183.038,150.673
0.164,12.284,2.204,2.204,199.787,182.952,150.610
0.166,12.431,2.234,2.234,199.898,182.873,150.551
0.168,12.563,2.266,2.266,199.996,182.802,150.499
0.170,12.676,2.295,2.295,200.081,182.741,150.455
0.171,12.768,2.318,2.318,200.149,182.692,150.420
0.173,12.837,2.332,2.332,200.202,182.655,150.395
0.175,12.887,2.337,2.337,200.240,182.628,150.377
0.177,12.920,2.336,2.336,200.266,182.611,150.367
0.179,12.937,2.332,2.332,200.280,182.602,150.362
0.180,12.942,2.327,2.327,200.285,182.600,150.363
0.182,12.949,2.323,2.323,200.281,182.604,150.367
0.184,12.964,2.322,2.322,200.271,182.612,150.374
0.186,12.985,2.324,2.324,200.257,182.624,150.383
0.188,13.009,2.327,2.327,200.240,182.639,150.393
0.189,13.035,2.331,2.331,200.221,182.654,150.402
0.191,13.060,2.334,2.334,200.202,182.669,150.410
0.193,13.083,2.335,2.335,200.185,182.683,150.414
0.195,13.100,2.335,2.335,200.172,182.694,150.416
0.196,13.112,2.333,2.333,200.163,182.701,150.412
0.198,13.121,2.329,2.329,200.160,182.705,150.404
0.200,13.134,2.325,2.325,200.162,182.705,150.391
0.202,13.152,2.319,2.319,200.169,182.703,150.374
0.204,13.176,2.313,2.313,200.179,182.698,150.354
0.205,13.205,2.307,2.307,200.193,182.690,150.330
0.207,13.239,2.300,2.300,200.211,182.681,150.302
0.209,13.276,2.293,2.293,200.232,182.671,150.273
0.211,13.317,2.287,2.287,200.255,182.660,150.241
0.213,13.361,2.282,2.282,200.280,182.649,150.207
0.214,13.407,2.277,2.277,200.307,182.638,150.171
0.216,13.455,2.274,2.274,200.336,182.627,150.134
0.218,13.504,2.273,2.273,200.366,182.617,150.097
0.220,13.554,2.273,2.273,200.396,182.609,150.058
0.221,13.604,2.276,2.276,200.427,182.602,150.020
0.223,13.654,2.281,2.281,200.459,182.597,149.981
0.225,13.704,2.289,2.289,200.491,182.593,149.942
0.227,13.756,2.299,2.299,200.524,182.591,149.903
0.229,13.809,2.310,2.310,200.558,182.591,149.863
0.230,13.863,2.323,2.323,200.594,182.592,149.822
0.232,13.918,2.336,2.336,200.632,182.594,149.781
0.234,13.976,2.350,2.350,200.671,182.598,149.740
0.236,14.036,2.361,2.361,200.713,182.603,149.697
0.238,14.097,2.370,2.370,200.757,182.609,149.654
0.239,14.162,2.372,2.372,200.804,182.616,149.610
0.241,14.229,2.368,2.368,200.853,182.624,149.566
0.243,14.299,2.354,2.354,200.905,182.633,149.520
0.245,14.373,2.330,2.330,200.961,182.643,149.473
0.246,14.450,2.300,2.300,201.020,182.654,149.425
0.248,14.530,2.265,2.265,201.083,182.663,149.376
0.250,14.614,2.230,2.230,201.150,182.670,149.325
0.252,14.702,2.197,2.197,201.220,182.673,149.273
0.254,14.794,2.170,2.170,201.295,182.671,149.219
0.255,14.892,2.149,2.149,201.374,182.663,149.163
0.257,14.995,2.135,2.135,201.458,182.647,149.104
0.259,15.104,2.127,2.127,201.546,182.622,149.044
0.261,15.222,2.124,2.124,201.639,182.586,148.981
0.263,15.349,2.128,2.128,201.737,182.538,148.916
0.264,15.487,2.136,2.136,201.840,182.478,148.847
0.266,15.637,2.146,2.146,201.948,182.402,148.776
0.268,15.801,2.154,2.154,202.062,182.311,148.702
0.270,15.980,2.157,2.157,202.182,182.203,148.625
0.271,16.172,2.151,2.151,202.307,182.080,148.545
0.273,16.376,2.132,2.132,202.438,181.946,148.464
0.275,16.589,2.101,2.101,202.575,181.805,148.384
0.277,16.807,2.070,2.070,202.719,181.661,148.305
0.279,17.028,2.048,2.048,202.869,181.517,148.230
0.280,17.250,2.048,2.048,203.025,181.377,148.159
0.282,17.469,2.080,2.080,203.187,181.244,148.093
0.284,17.685,2.155,2.155,203.357,181.124,148.035
0.286,17.897,2.267,2.267,203.533,181.018,147.985
0.288,18.103,2.396,2.396,203.716,180.932,147.944
0.289,18.306,2.524,2.524,203.907,180.869,147.915
0.291,18.508,2.633,2.633,204.104,180.832,147.898
0.293,18.713,2.702,2.702,204.309,180.826,147.895
0.295,18.926,2.720,2.720,204.521,180.852,147.906
0.296,19.152,2.698,2.698,204.738,180.908,147.931
0.298,19.389,2.658,2.658,204.957,180.990,147.967
0.300,19.637,2.618,2.618,205.177,181.094,148.015
0.302,19.893,2.600,2.600,205.395,181.217,148.071
0.304,20.154,2.622,2.622,205.608,181.355,148.134
0.305,20.419,2.692,2.692,205.815,181.503,148.204
0.307,20.681,2.793,2.793,206.012,181.660,148.279
0.309,20.939,2.906,2.906,206.199,181.819,148.357
0.311,21.188,3.015,3.015,206.371,181.979,148.437
0.313,21.423,3.099,3.099,206.528,182.135,148.518
0.314,21.641,3.142,3.142,206.667,182.284,148.597
0.316,21.838,3.144,3.144,206.784,182.421,148.674
0.318,22.009,3.116,3.116,206.879,182.544,148.748
0.320,22.154,3.070,3.070,206.951,182.649,148.816
0.321,22.273,3.018,3.018,207.002,182.737,148.878
0.323,22.367,2.970,2.970,207.035,182.808,148.930
0.325,22.437,2.937,2.937,207.053,182.860,148.973
0.327,22.483,2.920,2.920,207.056,182.894,149.005
0.329,22.508,2.919,2.919,207.049,182.909,149.023
0.330,22.524,2.934,2.934,207.033,182.905,149.026
0.332,22.558,2.964,2.964,207.012,182.882,149.013
0.334,22.617,3.010,3.010,206.986,182.840,148.983
0.336,22.701,3.068,3.068,206.960,182.777,148.932
0.338,22.813,3.131,3.131,206.935,182.695,148.861
0.339,22.954,3.190,3.190,206.914,182.591,148.767
0.341,23.126,3.237,3.237,206.899,182.467,148.649
0.343,23.331,3.266,3.266,206.892,182.322,148.505
0.345,23.564,3.268,3.268,206.894,182.159,148.338
0.346,23.823,3.251,3.251,206.904,181.982,148.149
0.348,24.103,3.229,3.229,206.920,181.793,147.943
0.350,24.400,3.219,3.219,206.942,181.598,147.721
0.352,24.708,3.235,3.235,206.970,181.399,147.488
0.354,25.023,3.292,3.292,207.001,181.201,147.245
0.355,25.341,3.401,3.401,207.036,181.007,146.995
0.357,25.657,3.545,3.545,207.074,180.821,146.743
0.359,25.967,3.706,3.706,207.113,180.646,146.490
0.361,26.266,3.864,3.864,207.153,180.487,146.239
0.363,26.551,3.999,3.999,207.193,180.347,145.994
0.364,26.818,4.092,4.092,207.232,180.230,145.757
0.366,27.064,4.136,4.136,207.269,180.139,145.531
0.368,27.288,4.145,4.145,207.304,180.077,145.319
0.370,27.493,4.135,4.135,207.336,180.042,145.120
0.371,27.682,4.121,4.121,207.366,180.030,144.934
0.373,27.857,4.117,4.117,207.395,180.039,144.761
0.375,28.023,4.139,4.139,207.421,180.065,144.600
0.377,28.179,4.184,4.184,207.446,180.106,144.450
0.379,28.328,4.245,4.245,207.469,180.158,144.313
0.380,28.471,4.312,4.312,207.491,180.218,144.186
0.382,28.606,4.375,4.375,207.511,180.284,144.070
0.384,28.733,4.426,4.426,207.531,180.352,143.964
0.386,28.852,4.459,4.459,207.550,180.419,143.868
0.388,28.960,4.475,4.475,207.568,180.483,143.782
0.389,29.058,4.480,4.480,207.586,180.540,143.705
0.391,29.143,4.478,4.478,207.604,180.587,143.636
0.393,29.215,4.474,4.474,207.621,180.623,143.576
0.395,29.277,4.472,4.472,207.638,180.650,143.523
0.396,29.328,4.474,4.474,207.654,180.668,143.478
0.398,29.372,4.480,4.480,207.670,180.679,143.438
0.400,29.409,4.490,4.490,207.684,180.683,143.405
0.402,29.441,4.501,4.501,207.698,180.682,143.376
0.404,29.469,4.515,4.515,207.711,180.677,143.352
0.405,29.494,4.529,4.529,207.722,180.669,143.331
0.407,29.516,4.544,4.544,207.732,180.659,143.314
0.409,29.537,4.558,4.558,207.741,180.648,143.298
0.411,29.555,4.570,4.570,207.747,180.638,143.285
0.413,29.571,4.580,4.580,207.752,180.629,143.273
0.414,29.584,4.587,4.587,207.755,180.623,143.261
0.416,29.597,4.591,4.591,207.755,180.621,143.249
0.418,29.609,4.591,4.591,207.754,180.622,143.236
0.420,29.623,4.588,4.588,207.752,180.626,143.223
0.421,29.639,4.583,4.583,207.750,180.632,143.209
0.423,29.656,4.577,4.577,207.749,180.640,143.194
0.425,29.674,4.570,4.570,207.748,180.650,143.178
0.427,29.694,4.563,4.563,207.750,180.660,143.160
0.429,29.716,4.558,4.558,207.754,180.670,143.141
0.430,29.740,4.558,4.558,207.762,180.679,143.121
0.432,29.767,4.565,4.565,207.774,180.688,143.098
0.434,29.797,4.581,4.581,207.790,180.694,143.074
0.436,29.832,4.608,4.608,207.813,180.698,143.047
0.438,29.873,4.642,4.642,207.841,180.700,143.018
0.439,29.920,4.680,4.680,207.876,180.698,142.986
0.441,29.975,4.716,4.716,207.919,180.692,142.952
0.443,30.038,4.747,4.747,207.968,180.683,142.915
0.445,30.107,4.766,4.766,208.024,180.671,142.876
0.446,30.182,4.771,4.771,208.085,180.656,142.835
0.448,30.262,4.766,4.766,208.150,180.640,142.791
0.450,30.347,4.751,4.751,208.219,180.622,142.745
0.452,30.435,4.732,4.732,208.291,180.602,142.697
0.454,30.527,4.711,4.711,208.365,180.583,142.648
0.455,30.621,4.691,4.691,208.441,180.563,142.596
0.457,30.716,4.674,4.674,208.518,180.544,142.543
0.459,30.813,4.660,4.660,208.596,180.525,142.489
0.461,30.909,4.647,4.647,208.672,180.508,142.433
0.463,31.005,4.635,4.635,208.747,180.493,142.375
0.464,31.099,4.624,4.624,208.820,180.480,142.317
0.466,31.193,4.613,4.613,208.892,180.469,142.257
0.468,31.286,4.603,4.603,208.962,180.461,142.197
0.470,31.380,4.593,4.593,209.034,180.453,142.136
0.471,31.475,4.584,4.584,209.107,180.446,142.075
0.473,31.573,4.578,4.578,209.182,180.440,142.014
0.475,31.674,4.573,4.573,209.262,180.433,141.953
0.477,31.778,4.571,4.571,209.347,180.425,141.892
0.479,31.888,4.570,4.570,209.439,180.416,141.832
0.480,32.005,4.569,4.569,209.538,180.405,141.772
0.482,32.128,4.567,4.567,209.645,180.392,141.713
0.484,32.260,4.563,4.563,209.763,180.376,141.656
0.486,32.402,4.554,4.554,209.892,180.357,141.600
0.488,32.555,4.543,4.543,210.033,180.334,141.545
0.489,32.720,4.531,4.531,210.188,180.306,141.493
0.491,32.897,4.521,4.521,210.354,180.275,141.442
0.493,33.083,4.515,4.515,210.529,180.239,141.392
0.495,33.276,4.517,4.517,210.712,180.201,141.343
0.496,33.473,4.528,4.528,210.899,180.160,141.294
0.498,33.673,4.548,4.548,211.088,180.116,141.246
0.500,33.874,4.576,4.576,211.277,180.071,141.198
0.502,34.072,4.609,4.609,211.464,180.025,141.150
0.504,34.266,4.648,4.648,211.646,179.978,141.100
0.505,34.454,4.690,4.690,211.820,179.930,141.050
0.507,34.634,4.733,4.733,211.985,179.883,140.998
0.509,34.802,4.777,4.777,212.139,179.836,140.944
0.511,34.958,4.818,4.818,212.277,179.790,140.889
0.513,35.101,4.856,4.856,212.399,179.746,140.831
0.514,35.228,4.889,4.889,212.503,179.704,140.770
0.516,35.343,4.915,4.915,212.590,179.664,140.707
0.518,35.449,4.933,4.933,212.663,179.624,140.642
0.520,35.546,4.947,4.947,212.722,179.586,140.574
0.521,35.638,4.956,4.956,212.770,179.549,140.505
0.523,35.727,4.965,4.965,212.809,179.512,140.434
0.525,35.813,4.973,4.973,212.840,179.476,140.362
0.527,35.898,4.984,4.984,212.864,179.440,140.289
0.529,35.984,4.995,4.995,212.885,179.403,140.215
0.530,36.069,5.007,5.007,212.903,179.367,140.140
0.532,36.155,5.018,5.018,212.920,179.329,140.064
0.534,36.242,5.026,5.026,212.938,179.290,139.988
0.536,36.330,5.032,5.032,212.959,179.251,139.912
0.538,36.420,5.033,5.033,212.984,179.210,139.837
0.539,36.512,5.033,5.033,213.015,179.167,139.761
0.541,36.604,5.033,5.033,213.050,179.125,139.687
0.543,36.697,5.035,5.035,213.090,179.083,139.614
0.545,36.790,5.042,5.042,213.133,179.042,139.543
0.546,36.881,5.056,5.056,213.179,179.004,139.474
0.548,36.970,5.077,5.077,213.227,178.970,139.408
0.550,37.057,5.102,5.102,213.278,178.939,139.345
0.552,37.140,5.130,5.130,213.330,178.914,139.285
0.554,37.219,5.159,5.159,213.383,178.895,139.230
0.555,37.294,5.187,5.187,213.437,178.882,139.179
0.557,37.364,5.213,5.213,213.491,178.877,139.133
0.559,37.431,5.235,5.235,213.544,178.881,139.093
0.561,37.495,5.252,5.252,213.596,178.895,139.059
0.563,37.558,5.264,5.264,213.647,178.919,139.031
0.564,37.621,5.268,5.268,213.696,178.952,139.009
0.566,37.688,5.264,5.264,213.745,178.994,138.993
0.568,37.757,5.253,5.253,213.793,179.044,138.983
0.570,37.831,5.236,5.236,213.842,179.099,138.978
0.571,37.910,5.216,5.216,213.892,179.159,138.980
0.573,37.992,5.196,5.196,213.943,179.223,138.986
0.575,38.078,5.179,5.179,213.996,179.290,138.998
0.577,38.167,5.167,5.167,214.052,179.358,139.014
0.579,38.259,5.160,5.160,214.110,179.426,139.036
0.580,38.355,5.156,5.156,214.172,179.494,139.062
0.582,38.452,5.152,5.152,214.238,179.559,139.092
0.584,38.552,5.145,5.145,214.308,179.621,139.127
0.586,38.655,5.134,5.134,214.384,179.679,139.165
0.588,38.760,5.116,5.116,214.464,179.732,139.207
0.589,38.868,5.093,5.093,214.550,179.780,139.251
0.591,38.977,5.066,5.066,214.639,179.826,139.296
0.593,39.089,5.038,5.038,214.732,179.870,139.339
0.595,39.201,5.011,5.011,214.827,179.914,139.381
0.596,39.314,4.987,4.987,214.924,179.957,139.418
0.598,39.427,4.968,4.968,215.022,180.003,139.450
0.600,39.539,4.952,4.952,215.121,180.050,139.475
0.602,39.652,4.939,4.939,215.219,180.102,139.491
0.604,39.765,4.926,4.926,215.317,180.158,139.498
0.605,39.880,4.914,4.914,215.413,180.221,139.493
0.607,39.998,4.901,4.901,215.507,180.290,139.475
0.609,40.122,4.886,4.886,215.599,180.368,139.442
0.611,40.254,4.866,4.866,215.687,180.454,139.394
0.613,40.397,4.839,4.839,215.772,180.550,139.331
0.614,40.548,4.803,4.803,215.856,180.651,139.256
0.616,40.708,4.757,4.757,215.940,180.756,139.172
0.618,40.872,4.698,4.698,216.028,180.864,139.083
0.620,41.041,4.635,4.635,216.120,180.970,138.991
0.621,41.210,4.574,4.574,216.219,181.074,138.899
0.623,41.380,4.524,4.524,216.326,181.172,138.811
0.625,41.549,4.493,4.493,216.443,181.264,138.730
0.627,41.718,4.490,4.490,216.572,181.345,138.659
0.629,41.887,4.514,4.514,216.715,181.415,138.601
0.630,42.061,4.555,4.555,216.874,181.470,138.559
0.632,42.243,4.599,4.599,217.050,181.509,138.536
0.634,42.440,4.633,4.633,217.246,181.529,138.535
0.636,42.658,4.645,4.645,217.463,181.528,138.559
0.638,42.898,4.622,4.622,217.698,181.509,138.606
0.639,43.158,4.568,4.568,217.947,181.473,138.673
0.641,43.435,4.493,4.493,218.206,181.423,138.756
0.643,43.724,4.409,4.409,218.472,181.363,138.852
0.645,44.021,4.330,4.330,218.741,181.294,138.958
0.646,44.321,4.267,4.267,219.008,181.219,139.071
0.648,44.618,4.229,4.229,219.270,181.142,139.187
0.650,44.907,4.214,4.214,219.523,181.064,139.303
0.652,45.183,4.215,4.215,219.763,180.988,139.417
0.654,45.441,4.225,4.225,219.987,180.917,139.524
0.655,45.675,4.238,4.238,220.190,180.854,139.621
0.657,45.879,4.249,4.249,220.368,180.801,139.705
0.659,46.048,4.253,4.253,220.518,180.761,139.774
0.661,46.180,4.253,4.253,220.637,180.735,139.824
0.663,46.279,4.250,4.250,220.728,180.722,139.858
0.664,46.348,4.246,4.246,220.795,180.720,139.878
0.666,46.394,4.242,4.242,220.839,180.728,139.885
0.668,46.423,4.242,4.242,220.864,180.744,139.882
0.670,46.449,4.244,4.244,220.872,180.765,139.870
0.671,46.482,4.249,4.249,220.867,180.791,139.851
0.673,46.522,4.254,4.254,220.851,180.820,139.827
0.675,46.569,4.260,4.260,220.827,180.849,139.800
0.677,46.618,4.266,4.266,220.798,180.878,139.772
0.679,46.667,4.270,4.270,220.767,180.904,139.745
0.680,46.711,4.274,4.274,220.737,180.926,139.720
0.682,46.748,4.276,4.276,220.711,180.941,139.700
0.684,46.774,4.278,4.278,220.691,180.950,139.686
0.686,46.789,4.279,4.279,220.678,180.950,139.679
0.688,46.798,4.281,4.281,220.672,180.944,139.678
0.689,46.811,4.282,4.282,220.672,180.931,139.683
0.691,46.832,4.283,4.283,220.676,180.913,139.692
0.693,46.859,4.284,4.284,220.685,180.891,139.705
0.695,46.892,4.285,4.285,220.698,180.865,139.721
0.696,46.929,4.285,4.285,220.713,180.837,139.740
0.698,46.969,4.285,4.285,220.731,180.807,139.760
0.700,47.011,4.285,4.285,220.749,180.776,139.781
0.702,47.053,4.284,4.284,220.768,180.746,139.803
0.704,47.093,4.284,4.284,220.787,180.717,139.824
0.705,47.131,4.283,4.283,220.805,180.690,139.843
0.707,47.165,4.283,4.283,220.821,180.665,139.861
0.709,47.194,4.282,4.282,220.834,180.645,139.875
0.711,47.217,4.282,4.282,220.845,180.628,139.887
0.713,47.236,4.283,4.283,220.854,180.614,139.897
0.714,47.250,4.283,4.283,220.861,180.604,139.904
0.716,47.260,4.284,4.284,220.866,180.597,139.909
0.718,47.266,4.286,4.286,220.870,180.593,139.911
0.720,47.269,4.288,4.288,220.872,180.592,139.912
0.721,47.271,4.290,4.290,220.874,180.593,139.911
0.723,47.276,4.292,4.292,220.875,180.597,139.908
0.725,47.283,4.293,4.293,220.876,180.602,139.903
0.727,47.293,4.293,4.293,220.877,180.610,139.897
