"T","Distance","Radius","FreeRadius","X","Y","Z"
0.000,0.000,1.071,1.071,221.701,188.759,175.419
0.002,0.104,1.078,1.078,221.778,188.695,175.443
0.003,0.205,1.087,1.087,221.854,188.631,175.465
0.005,0.303,1.097,1.097,221.927,188.568,175.483
0.007,0.395,1.109,1.109,221.994,188.508,175.496
0.008,0.479,1.124,1.124,222.055,188.449,175.503
0.010,0.554,1.143,1.143,222.107,188.395,175.500
0.012,0.622,1.166,1.166,222.149,188.343,175.488
0.013,0.682,1.192,1.192,222.178,188.297,175.463
0.015,0.740,1.221,1.221,222.194,188.256,175.425
0.017,0.804,1.251,1.251,222.196,188.220,175.372
0.018,0.876,1.280,1.280,222.187,188.189,175.308
0.020,0.951,1.308,1.308,222.176,188.162,175.239
0.022,1.024,1.332,1.332,222.168,188.137,175.171
0.023,1.091,1.353,1.353,222.171,188.113,175.108
0.025,1.151,1.369,1.369,222.190,188.090,175.057
0.027,1.211,1.379,1.379,222.233,188.065,175.022
0.028,1.291,1.383,1.383,222.307,188.039,175.010
0.030,1.406,1.378,1.378,222.418,188.008,175.027
0.032,1.571,1.365,1.365,222.571,187.974,175.075
0.033,1.784,1.348,1.348,222.765,187.935,175.152
0.035,2.035,1.337,1.337,222.994,187.894,175.248
0.037,2.317,1.340,1.340,223.252,187.851,175.355
0.038,2.620,1.364,1.364,223.532,187.807,175.462
0.040,2.936,1.417,1.417,223.828,187.765,175.563
0.042,3.256,1.508,1.508,224.134,187.724,175.646
0.043,3.574,1.634,1.634,224.445,187.687,175.704
0.045,3.885,1.788,1.788,224.753,187.655,175.727
0.047,4.187,1.961,1.961,225.053,187.627,175.708
0.048,4.483,2.146,2.146,225.342,187.606,175.648
0.050,4.772,2.336,2.336,225.616,187.590,175.555
0.051,5.055,2.521,2.521,225.872,187.579,175.438
0.053,5.326,2.697,2.697,226.109,187.572,175.306
0.055,5.582,2.860,2.860,226.324,187.570,175.166
0.056,5.816,3.005,3.005,226.514,187.570,175.029
0.058,6.023,3.128,3.128,226.676,187.574,174.901
0.060,6.194,3.224,3.224,226.808,187.580,174.793
0.061,6.323,3.290,3.290,226.908,187.589,174.712
0.063,6.409,3.327,3.327,226.976,187.598,174.660
0.065,6.459,3.341,3.341,227.018,187.609,174.633
0.066,6.481,3.338,3.338,227.037,187.619,174.629
0.068,6.497,3.325,3.325,227.038,187.628,174.641
0.070,6.527,3.308,3.308,227.026,187.635,174.668
0.071,6.569,3.293,3.293,227.005,187.639,174.704
0.073,6.618,3.283,3.283,226.979,187.640,174.745
0.075,6.668,3.277,3.277,226.954,187.637,174.789
0.076,6.714,3.275,3.275,226.934,187.629,174.829
0.078,6.755,3.276,3.276,226.921,187.616,174.866
0.080,6.791,3.278,3.278,226.915,187.604,174.900
0.081,6.824,3.281,3.281,226.915,187.595,174.931
0.083,6.855,3.283,3.283,226.920,187.593,174.962
0.085,6.890,3.282,3.282,226.931,187.603,174.994
0.086,6.935,3.276,3.276,226.946,187.628,175.027
0.088,6.995,3.261,3.261,226.964,187.672,175.064
0.090,7.076,3.237,3.237,226.986,187.739,175.105
0.091,7.184,3.200,3.200,227.010,187.833,175.152
0.093,7.318,3.150,3.150,227.036,187.954,175.204
0.095,7.472,3.090,3.090,227.063,188.095,175.260
0.096,7.640,3.025,3.025,227.090,188.250,175.319
0.098,7.813,2.959,2.959,227.115,188.411,175.377
0.100,7.985,2.895,2.895,227.139,188.571,175.434
0.101,8.147,2.837,2.837,227.159,188.724,175.487
0.103,8.294,2.789,2.789,227.175,188.861,175.534
0.105,8.416,2.749,2.749,227.186,188.976,175.573
0.106,8.507,2.719,2.719,227.190,189.063,175.603
0.108,8.564,2.698,2.698,227.189,189.116,175.622
0.110,8.593,2.685,2.685,227.182,189.142,175.633
0.111,8.604,2.681,2.681,227.173,189.147,175.637
0.113,8.617,2.683,2.683,227.164,189.138,175.638
0.115,8.635,2.691,2.691,227.156,189.121,175.637
0.116,8.654,2.700,2.700,227.152,189.103,175.637
0.118,8.666,2.708,2.708,227.154,189.091,175.641
0.120,8.680,2.711,2.711,227.164,189.092,175.650
0.121,8.712,2.707,2.707,227.183,189.111,175.668
0.123,8.772,2.693,2.693,227.214,189.154,175.695
0.125,8.855,2.669,2.669,227.253,189.217,175.732
0.126,8.956,2.637,2.637,227.298,189.297,175.776
0.128,9.070,2.597,2.597,227.346,189.387,175.826
0.130,9.190,2.550,2.550,227.393,189.483,175.881
0.131,9.312,2.498,2.498,227.436,189.581,175.939
0.133,9.430,2.440,2.440,227.472,189.676,175.999
0.135,9.539,2.381,2.381,227.498,189.763,176.059
0.136,9.635,2.322,2.322,227.511,189.837,176.118
0.138,9.716,2.268,2.268,227.509,189.895,176.175
0.140,9.789,2.220,2.220,227.494,189.943,176.228
0.141,9.860,2.182,2.182,227.471,189.987,176.278
0.143,9.933,2.157,2.157,227.444,190.037,176.325
0.145,10.013,2.139,2.139,227.419,190.100,176.366
0.146,10.107,2.121,2.121,227.399,190.185,176.404
0.148,10.226,2.098,2.098,227.388,190.299,176.436
0.150,10.379,2.062,2.062,227.393,190.450,176.462
0.151,10.578,2.006,2.006,227.415,190.646,176.483
0.153,10.830,1.925,1.925,227.461,190.894,176.497
0.154,11.130,1.824,1.824,227.526,191.187,176.506
0.156,11.465,1.711,1.711,227.608,191.511,176.510
0.158,11.820,1.595,1.595,227.700,191.854,176.511
0.159,12.183,1.485,1.485,227.799,192.203,176.509
0.161,12.538,1.391,1.391,227.899,192.544,176.506
0.163,12.874,1.320,1.320,227.995,192.866,176.503
0.164,13.175,1.274,1.274,228.083,193.154,176.501
0.166,13.428,1.248,1.248,228.158,193.395,176.501
0.168,13.621,1.239,1.239,228.216,193.579,176.503
0.169,13.755,1.243,1.243,228.257,193.706,176.510
0.171,13.840,1.257,1.257,228.284,193.786,176.522
0.173,13.890,1.277,1.277,228.301,193.830,176.541
0.174,13.923,1.301,1.301,228.312,193.847,176.566
0.176,13.958,1.330,1.330,228.319,193.847,176.600
0.178,14.002,1.361,1.361,228.326,193.841,176.644
0.179,14.058,1.396,1.396,228.337,193.838,176.698
0.181,14.127,1.433,1.433,228.355,193.848,176.764
0.183,14.217,1.472,1.472,228.383,193.882,176.842
0.184,14.330,1.512,1.512,228.421,193.941,176.932
0.186,14.464,1.554,1.554,228.468,194.019,177.029
0.188,14.610,1.595,1.595,228.519,194.112,177.129
0.189,14.762,1.636,1.636,228.574,194.214,177.229
0.191,14.915,1.676,1.676,228.628,194.320,177.324
0.193,15.060,1.715,1.715,228.680,194.424,177.412
0.194,15.191,1.751,1.751,228.727,194.521,177.487
0.196,15.301,1.783,1.783,228.766,194.605,177.546
0.198,15.383,1.811,1.811,228.794,194.671,177.585
0.199,15.437,1.833,1.833,228.812,194.718,177.604
0.201,15.469,1.848,1.848,228.823,194.748,177.606
0.203,15.492,1.855,1.855,228.831,194.766,177.594
0.204,15.517,1.854,1.854,228.838,194.774,177.571
0.206,15.549,1.847,1.847,228.849,194.775,177.541
0.208,15.587,1.835,1.835,228.866,194.774,177.507
0.209,15.631,1.819,1.819,228.894,194.773,177.472
0.211,15.684,1.801,1.801,228.935,194.776,177.441
0.213,15.748,1.783,1.783,228.994,194.786,177.415
0.214,15.829,1.765,1.765,229.070,194.804,177.398
0.216,15.924,1.748,1.748,229.161,194.830,177.387
0.218,16.029,1.732,1.732,229.261,194.862,177.381
0.219,16.141,1.718,1.718,229.367,194.898,177.380
0.221,16.256,1.706,1.706,229.475,194.936,177.381
0.223,16.368,1.696,1.696,229.580,194.976,177.383
0.224,16.473,1.689,1.689,229.678,195.016,177.385
0.226,16.568,1.683,1.683,229.764,195.053,177.385
0.228,16.646,1.680,1.680,229.836,195.087,177.382
0.229,16.708,1.679,1.679,229.890,195.116,177.375
0.231,16.758,1.680,1.680,229.930,195.143,177.364
0.233,16.801,1.682,1.682,229.961,195.169,177.352
0.234,16.841,1.686,1.686,229.987,195.196,177.337
0.236,16.884,1.691,1.691,230.013,195.226,177.321
0.238,16.933,1.696,1.696,230.043,195.261,177.305
0.239,16.991,1.702,1.702,230.082,195.303,177.289
0.241,17.065,1.708,1.708,230.133,195.353,177.275
0.243,17.157,1.713,1.713,230.201,195.414,177.262
0.244,17.271,1.717,1.717,230.290,195.486,177.252
0.246,17.404,1.722,1.722,230.394,195.567,177.244
0.248,17.549,1.729,1.729,230.510,195.655,177.238
0.249,17.702,1.740,1.740,230.631,195.747,177.232
0.251,17.856,1.755,1.755,230.754,195.841,177.228
0.252,18.007,1.776,1.776,230.873,195.933,177.224
0.254,18.148,1.804,1.804,230.982,196.022,177.220
0.256,18.273,1.837,1.837,231.078,196.104,177.215
0.257,18.379,1.872,1.872,231.154,196.176,177.209
0.259,18.461,1.905,1.905,231.207,196.238,177.202
0.261,18.521,1.933,1.933,231.240,196.288,177.194
0.262,18.564,1.954,1.954,231.254,196.327,177.184
0.264,18.594,1.965,1.965,231.254,196.355,177.173
0.266,18.618,1.967,1.967,231.244,196.373,177.162
0.267,18.641,1.960,1.960,231.226,196.382,177.150
0.269,18.666,1.948,1.948,231.204,196.381,177.137
0.271,18.694,1.931,1.931,231.182,196.372,177.124
0.272,18.723,1.911,1.911,231.162,196.354,177.112
0.274,18.754,1.890,1.890,231.149,196.329,177.099
0.276,18.785,1.869,1.869,231.144,196.301,177.086
0.277,18.815,1.848,1.847,231.146,196.276,177.071
0.279,18.841,1.827,1.827,231.158,196.258,177.056
0.281,18.868,1.808,1.808,231.179,196.255,177.038
0.282,18.908,1.791,1.791,231.209,196.270,177.017
0.284,18.971,1.777,1.777,231.251,196.311,176.994
0.286,19.065,1.767,1.767,231.304,196.383,176.966
0.287,19.195,1.762,1.762,231.368,196.491,176.933
0.289,19.366,1.765,1.765,231.445,196.640,176.896
0.291,19.576,1.776,1.776,231.535,196.824,176.854
0.292,19.813,1.798,1.798,231.637,197.033,176.807
0.294,20.067,1.831,1.831,231.751,197.255,176.758
0.296,20.328,1.873,1.873,231.877,197.478,176.706
0.297,20.588,1.920,1.919,232.014,197.691,176.652
0.299,20.837,1.966,1.965,232.164,197.883,176.597
0.301,21.070,2.007,2.006,232.324,198.043,176.542
0.302,21.284,2.038,2.037,232.496,198.158,176.488
0.304,21.483,2.053,2.054,232.679,198.218,176.435
0.306,21.680,2.053,2.055,232.869,198.225,176.385
0.307,21.879,2.041,2.043,233.060,198.193,176.342
0.309,22.078,2.018,2.020,233.247,198.132,176.306
0.311,22.271,1.987,1.990,233.423,198.057,176.283
0.312,22.448,1.952,1.953,233.581,197.979,176.273
0.314,22.599,1.915,1.914,233.716,197.912,176.281
0.316,22.717,1.880,1.875,233.822,197.868,176.308
0.317,22.803,1.852,1.844,233.893,197.860,176.358
0.319,22.893,1.836,1.826,233.922,197.901,176.433
0.321,23.027,1.837,1.828,233.914,197.994,176.528
0.322,23.204,1.859,1.854,233.880,198.132,176.633
0.324,23.415,1.908,1.913,233.834,198.311,176.736
0.326,23.649,1.983,2.002,233.791,198.523,176.825
0.327,23.897,2.074,2.113,233.764,198.762,176.887
0.329,24.158,2.173,2.238,233.766,199.021,176.911
0.331,24.435,2.271,2.366,233.811,199.294,176.886
0.332,24.746,2.358,2.490,233.912,199.575,176.799
0.334,25.113,2.425,2.599,234.083,199.856,176.638
0.336,25.550,2.470,2.690,234.327,200.134,176.403
0.337,26.050,2.501,2.766,234.628,200.403,176.110
0.339,26.593,2.527,2.830,234.970,200.661,175.777
0.341,27.160,2.557,2.887,235.337,200.904,175.419
0.342,27.728,2.600,2.939,235.712,201.129,175.056
0.344,28.276,2.664,2.991,236.080,201.331,174.704
0.346,28.780,2.755,3.046,236.423,201.508,174.380
0.347,29.217,2.864,3.102,236.726,201.656,174.103
0.349,29.563,2.984,3.158,236.972,201.772,173.889
0.350,29.806,3.107,3.215,237.152,201.854,173.748
0.352,29.959,3.225,3.270,237.274,201.907,173.671
0.354,30.039,3.331,3.323,237.344,201.937,173.649
0.355,30.076,3.418,3.374,237.373,201.948,173.670
0.357,30.132,3.487,3.421,237.369,201.946,173.725
0.359,30.216,3.536,3.465,237.341,201.936,173.804
0.360,30.317,3.566,3.505,237.298,201.923,173.895
0.362,30.424,3.577,3.542,237.247,201.913,173.988
0.364,30.523,3.570,3.574,237.199,201.910,174.074
0.365,30.604,3.545,3.601,237.160,201.919,174.145
0.367,30.667,3.509,3.624,237.135,201.940,174.199
0.369,30.720,3.467,3.640,237.127,201.972,174.240
0.370,30.772,3.427,3.649,237.140,202.014,174.269
0.372,30.838,3.395,3.650,237.176,202.067,174.286
0.374,30.927,3.377,3.643,237.239,202.128,174.294
0.375,31.044,3.377,3.627,237.333,202.198,174.295
0.377,31.193,3.394,3.605,237.461,202.276,174.289
0.379,31.379,3.422,3.580,237.626,202.361,174.278
0.380,31.603,3.455,3.557,237.829,202.452,174.264
0.382,31.858,3.491,3.537,238.065,202.548,174.247
0.384,32.133,3.522,3.525,238.322,202.644,174.227
0.385,32.421,3.546,3.522,238.593,202.738,174.204
0.387,32.711,3.563,3.528,238.867,202.828,174.178
0.389,32.993,3.574,3.541,239.136,202.910,174.148
0.390,33.258,3.582,3.556,239.389,202.982,174.115
0.392,33.497,3.586,3.573,239.618,203.040,174.079
0.394,33.700,3.589,3.588,239.813,203.082,174.040
0.395,33.861,3.592,3.598,239.966,203.106,173.998
0.397,33.983,3.596,3.605,240.080,203.114,173.955
0.399,34.074,3.599,3.608,240.160,203.108,173.912
0.400,34.143,3.601,3.608,240.214,203.093,173.871
0.402,34.196,3.601,3.605,240.247,203.072,173.836
0.404,34.237,3.599,3.599,240.265,203.049,173.807
0.405,34.269,3.594,3.592,240.276,203.027,173.787
0.407,34.290,3.587,3.584,240.284,203.009,173.778
0.409,34.307,3.579,3.576,240.296,203.000,173.782
0.410,34.336,3.571,3.569,240.319,203.001,173.801
0.412,34.382,3.564,3.563,240.352,203.013,173.831
0.414,34.442,3.560,3.560,240.395,203.030,173.869
0.415,34.510,3.559,3.560,240.446,203.050,173.909
0.417,34.581,3.561,3.562,240.504,203.068,173.946
0.419,34.652,3.563,3.564,240.567,203.080,173.975
0.420,34.721,3.563,3.564,240.635,203.083,173.991
0.422,34.792,3.560,3.560,240.705,203.073,173.990
0.424,34.871,3.550,3.550,240.775,203.046,173.966
0.425,34.970,3.533,3.533,240.846,202.999,173.915
0.427,35.093,3.508,3.508,240.915,202.933,173.838
0.429,35.235,3.479,3.479,240.980,202.852,173.742
0.430,35.389,3.447,3.447,241.041,202.761,173.633
0.432,35.548,3.415,3.415,241.096,202.666,173.517
0.434,35.705,3.385,3.385,241.143,202.571,173.402
0.435,35.852,3.360,3.360,241.182,202.481,173.293
0.437,35.980,3.340,3.340,241.210,202.401,173.196
0.439,36.083,3.325,3.325,241.226,202.335,173.119
0.440,36.152,3.313,3.313,241.229,202.289,173.068
0.442,36.190,3.304,3.304,241.223,202.261,173.043
0.444,36.207,3.296,3.296,241.214,202.247,173.040
0.445,36.224,3.288,3.288,241.210,202.242,173.056
0.447,36.255,3.280,3.280,241.221,202.239,173.085
0.449,36.306,3.268,3.268,241.253,202.233,173.124
0.450,36.383,3.249,3.249,241.314,202.218,173.168
0.452,36.495,3.221,3.221,241.413,202.189,173.213
0.453,36.653,3.182,3.182,241.558,202.141,173.254
0.455,36.866,3.128,3.128,241.756,202.067,173.286
0.457,37.137,3.061,3.061,242.006,201.968,173.309
0.458,37.452,2.987,2.987,242.297,201.847,173.324
0.460,37.798,2.913,2.913,242.615,201.712,173.332
0.462,38.160,2.845,2.845,242.947,201.567,173.336
0.463,38.524,2.789,2.789,243.280,201.419,173.337
0.465,38.876,2.753,2.753,243.601,201.273,173.337
0.467,39.202,2.739,2.739,243.896,201.136,173.337
0.468,39.487,2.741,2.741,244.153,201.013,173.341
0.470,39.716,2.756,2.756,244.357,200.910,173.349
0.472,39.884,2.777,2.777,244.504,200.830,173.362
0.473,39.997,2.799,2.799,244.600,200.771,173.378
0.475,40.066,2.817,2.817,244.652,200.730,173.394
0.477,40.100,2.827,2.827,244.671,200.704,173.408
0.478,40.117,2.831,2.831,244.664,200.692,173.417
0.480,40.142,2.832,2.832,244.639,200.690,173.418
0.482,40.176,2.831,2.831,244.606,200.695,173.409
0.483,40.217,2.831,2.831,244.573,200.704,173.388
0.485,40.263,2.833,2.833,244.548,200.716,173.352
0.487,40.317,2.840,2.840,244.537,200.727,173.299
0.488,40.385,2.849,2.849,244.540,200.737,173.233
0.490,40.463,2.858,2.858,244.554,200.743,173.155
0.492,40.551,2.866,2.866,244.576,200.745,173.071
0.493,40.644,2.869,2.869,244.605,200.742,172.982
0.495,40.740,2.866,2.866,244.638,200.733,172.892
0.497,40.836,2.856,2.856,244.673,200.715,172.805
0.498,40.929,2.840,2.840,244.708,200.689,172.723
0.500,41.017,2.819,2.819,244.740,200.652,172.649
0.502,41.101,2.796,2.796,244.768,200.605,172.586
0.503,41.185,2.772,2.772,244.795,200.547,172.531
0.505,41.275,2.748,2.748,244.822,200.479,172.479
0.507,41.374,2.727,2.727,244.855,200.403,172.425
0.508,41.484,2.707,2.707,244.895,200.318,172.366
0.510,41.610,2.687,2.687,244.945,200.227,172.297
0.512,41.753,2.667,2.667,245.010,200.130,172.214
0.513,41.919,2.645,2.645,245.091,200.027,172.112
0.515,42.112,2.619,2.619,245.192,199.920,171.988
0.517,42.336,2.589,2.589,245.316,199.810,171.837
0.518,42.585,2.556,2.556,245.458,199.698,171.665
0.520,42.850,2.521,2.521,245.613,199.587,171.481
0.522,43.123,2.487,2.487,245.775,199.479,171.291
0.523,43.392,2.456,2.456,245.940,199.376,171.104
0.525,43.650,2.429,2.429,246.102,199.280,170.927
0.527,43.886,2.407,2.407,246.254,199.193,170.769
0.528,44.091,2.392,2.392,246.392,199.118,170.637
0.530,44.256,2.384,2.384,246.510,199.056,170.540
0.532,44.375,2.382,2.382,246.604,199.010,170.483
0.533,44.455,2.386,2.386,246.674,198.977,170.464
0.535,44.512,2.396,2.396,246.724,198.951,170.473
0.537,44.563,2.413,2.413,246.759,198.928,170.501
0.538,44.617,2.433,2.433,246.783,198.902,170.541
0.540,44.673,2.454,2.454,246.800,198.868,170.583
0.542,44.733,2.472,2.472,246.813,198.821,170.619
0.543,44.802,2.484,2.484,246.828,198.757,170.639
0.545,44.891,2.487,2.487,246.848,198.670,170.635
0.547,45.015,2.476,2.476,246.878,198.556,170.598
0.548,45.175,2.455,2.455,246.917,198.416,170.530
0.550,45.367,2.426,2.426,246.963,198.255,170.437
0.551,45.582,2.394,2.394,247.014,198.079,170.324
0.553,45.811,2.363,2.363,247.068,197.895,170.200
0.555,46.046,2.338,2.338,247.123,197.707,170.069
0.556,46.279,2.322,2.322,247.177,197.521,169.940
0.558,46.501,2.318,2.318,247.227,197.343,169.818
0.560,46.702,2.322,2.322,247.271,197.178,169.710
0.561,46.876,2.334,2.334,247.307,197.032,169.622
0.563,47.020,2.353,2.353,247.335,196.907,169.556
0.565,47.139,2.376,2.376,247.356,196.801,169.509
0.566,47.235,2.402,2.402,247.371,196.710,169.479
0.568,47.314,2.430,2.430,247.381,196.634,169.460
0.570,47.379,2.456,2.456,247.388,196.570,169.452
0.571,47.434,2.479,2.479,247.393,196.516,169.450
0.573,47.481,2.497,2.497,247.396,196.469,169.452
0.575,47.523,2.507,2.507,247.400,196.427,169.455
0.576,47.562,2.507,2.507,247.406,196.389,169.454
0.578,47.600,2.498,2.498,247.415,196.352,169.450
0.580,47.638,2.482,2.482,247.428,196.317,169.442
0.581,47.677,2.463,2.463,247.447,196.284,169.432
0.583,47.720,2.445,2.445,247.473,196.253,169.419
0.585,47.767,2.430,2.430,247.508,196.224,169.405
0.586,47.821,2.421,2.421,247.553,196.198,169.391
0.588,47.885,2.421,2.421,247.610,196.173,169.377
0.590,47.960,2.427,2.427,247.681,196.152,169.364
0.591,48.048,2.434,2.434,247.766,196.132,169.353
0.593,48.150,2.440,2.440,247.866,196.115,169.344
0.595,48.263,2.442,2.442,247.978,196.100,169.335
0.596,48.385,2.437,2.437,248.099,196.085,169.328
0.598,48.513,2.422,2.422,248.226,196.071,169.319
0.600,48.645,2.401,2.401,248.356,196.057,169.309
0.601,48.776,2.374,2.374,248.486,196.041,169.296
0.603,48.905,2.344,2.344,248.613,196.024,169.281
0.605,49.030,2.312,2.312,248.734,196.004,169.260
0.606,49.147,2.281,2.281,248.847,195.981,169.235
0.608,49.256,2.253,2.253,248.948,195.955,169.204
0.610,49.357,2.228,2.228,249.038,195.927,169.169
0.611,49.449,2.208,2.208,249.116,195.898,169.129
0.613,49.534,2.194,2.194,249.183,195.868,169.088
0.615,49.610,2.186,2.186,249.239,195.840,169.045
0.616,49.677,2.186,2.186,249.284,195.815,169.002
0.618,49.735,2.194,2.194,249.317,195.793,168.959
0.620,49.784,2.208,2.208,249.339,195.776,168.918
0.621,49.825,2.227,2.227,249.351,195.765,168.881
0.623,49.859,2.247,2.247,249.352,195.761,168.847
0.625,49.890,2.266,2.266,249.348,195.762,168.817
0.626,49.917,2.283,2.283,249.345,195.766,168.790
0.628,49.942,2.294,2.294,249.350,195.773,168.766
0.630,49.970,2.299,2.299,249.368,195.779,168.745
0.631,50.012,2.295,2.295,249.405,195.784,168.727
0.633,50.076,2.280,2.280,249.467,195.785,168.710
0.635,50.171,2.254,2.254,249.561,195.781,168.696
0.636,50.303,2.215,2.215,249.691,195.770,168.682
0.638,50.477,2.161,2.161,249.864,195.751,168.670
0.640,50.687,2.097,2.097,250.072,195.723,168.659
0.641,50.924,2.029,2.029,250.306,195.688,168.649
0.643,51.179,1.962,1.962,250.557,195.647,168.640
0.645,51.443,1.904,1.904,250.817,195.601,168.632
0.646,51.707,1.858,1.858,251.076,195.551,168.625
0.648,51.961,1.832,1.832,251.325,195.497,168.619
0.650,52.197,1.823,1.823,251.554,195.441,168.614
0.651,52.406,1.828,1.828,251.755,195.383,168.610
0.653,52.581,1.842,1.842,251.920,195.325,168.607
0.654,52.723,1.864,1.864,252.050,195.268,168.604
0.656,52.840,1.888,1.888,252.153,195.214,168.600
0.658,52.936,1.911,1.911,252.235,195.164,168.595
0.659,53.018,1.933,1.933,252.303,195.120,168.586
0.661,53.089,1.953,1.953,252.363,195.083,168.573
0.663,53.157,1.972,1.972,252.423,195.056,168.555
0.664,53.228,1.990,1.990,252.488,195.039,168.531
0.666,53.312,2.006,2.006,252.565,195.035,168.500
0.668,53.416,2.021,2.021,252.661,195.045,168.461
0.669,53.542,2.036,2.036,252.775,195.069,168.414
0.671,53.684,2.050,2.050,252.901,195.108,168.360
0.673,53.838,2.065,2.065,253.033,195.160,168.300
0.674,53.999,2.081,2.081,253.166,195.225,168.236
0.676,54.165,2.098,2.098,253.294,195.304,168.167
