"T","Distance","Radius","FreeRadius","X","Y","Z"
0.000,0.000,1.071,1.071,221.701,188.759,175.419
0.001,0.091,1.109,1.109,221.730,188.685,175.375
0.002,0.181,1.147,1.147,221.761,188.612,175.333
0.004,0.266,1.182,1.182,221.794,188.542,175.297
0.005,0.347,1.214,1.214,221.830,188.476,175.268
0.006,0.421,1.241,1.241,221.871,188.416,175.249
0.007,0.492,1.261,1.261,221.916,188.363,175.244
0.008,0.561,1.275,1.275,221.969,188.319,175.253
0.010,0.635,1.280,1.280,222.029,188.285,175.281
0.011,0.722,1.276,1.276,222.097,188.262,175.328
0.012,0.828,1.263,1.263,222.175,188.251,175.399
0.013,0.959,1.243,1.243,222.264,188.255,175.495
0.014,1.113,1.218,1.218,222.362,188.271,175.613
0.015,1.286,1.190,1.190,222.467,188.298,175.749
0.017,1.473,1.162,1.162,222.576,188.333,175.896
0.018,1.667,1.134,1.134,222.688,188.374,176.049
0.019,1.864,1.111,1.111,222.800,188.418,176.205
0.020,2.056,1.092,1.092,222.909,188.463,176.357
0.021,2.239,1.081,1.081,223.013,188.507,176.500
0.023,2.405,1.076,1.076,223.110,188.547,176.630
0.024,2.550,1.077,1.077,223.198,188.581,176.740
0.025,2.668,1.083,1.083,223.274,188.607,176.827
0.026,2.759,1.094,1.094,223.338,188.623,176.888
0.027,2.827,1.109,1.109,223.394,188.631,176.928
0.029,2.880,1.127,1.127,223.442,188.630,176.947
0.030,2.925,1.147,1.147,223.486,188.622,176.950
0.031,2.972,1.169,1.169,223.529,188.605,176.939
0.032,3.026,1.192,1.192,223.572,188.582,176.916
0.033,3.090,1.218,1.218,223.618,188.551,176.884
0.035,3.164,1.247,1.247,223.670,188.514,176.846
0.036,3.249,1.279,1.279,223.730,188.471,176.804
0.037,3.344,1.315,1.315,223.800,188.422,176.762
0.038,3.450,1.355,1.355,223.881,188.368,176.721
0.039,3.565,1.401,1.401,223.972,188.312,176.681
0.041,3.686,1.452,1.452,224.071,188.253,176.641
0.042,3.813,1.509,1.509,224.177,188.195,176.601
0.043,3.942,1.570,1.570,224.287,188.139,176.562
0.044,4.073,1.635,1.635,224.399,188.086,176.522
0.045,4.202,1.702,1.702,224.512,188.039,176.482
0.046,4.327,1.768,1.768,224.624,187.999,176.442
0.048,4.449,1.834,1.834,224.734,187.968,176.400
0.049,4.564,1.897,1.897,224.839,187.948,176.358
0.050,4.672,1.957,1.957,224.938,187.939,176.314
0.051,4.776,2.011,2.011,225.032,187.939,176.271
0.052,4.876,2.059,2.059,225.123,187.948,176.231
0.054,4.973,2.102,2.102,225.211,187.963,176.194
0.055,5.067,2.140,2.140,225.299,187.981,176.164
0.056,5.159,2.173,2.173,225.386,188.000,176.141
0.057,5.251,2.201,2.201,225.475,188.020,176.128
0.058,5.344,2.224,2.224,225.566,188.036,176.126
0.060,5.441,2.243,2.243,225.662,188.048,176.137
0.061,5.545,2.258,2.258,225.762,188.054,176.164
0.062,5.660,2.268,2.268,225.869,188.050,176.207
0.063,5.787,2.274,2.274,225.980,188.038,176.267
0.064,5.926,2.272,2.272,226.094,188.018,176.344
0.066,6.076,2.262,2.262,226.208,187.990,176.437
0.067,6.237,2.243,2.243,226.319,187.955,176.548
0.068,6.408,2.213,2.213,226.426,187.914,176.675
0.069,6.590,2.171,2.171,226.526,187.866,176.820
0.070,6.782,2.116,2.116,226.616,187.813,176.980
0.072,6.985,2.046,2.046,226.695,187.754,177.158
0.073,7.199,1.964,1.964,226.760,187.691,177.352
0.074,7.425,1.873,1.873,226.809,187.624,177.562
0.075,7.662,1.779,1.779,226.841,187.553,177.786
0.076,7.908,1.684,1.684,226.856,187.480,178.020
0.077,8.158,1.592,1.592,226.854,187.404,178.259
0.079,8.411,1.509,1.509,226.836,187.326,178.499
0.080,8.663,1.438,1.438,226.802,187.248,178.736
0.081,8.912,1.382,1.382,226.751,187.169,178.966
0.082,9.153,1.345,1.345,226.684,187.090,179.184
0.083,9.385,1.323,1.323,226.601,187.012,179.386
0.085,9.605,1.315,1.315,226.503,186.935,179.568
0.086,9.814,1.318,1.318,226.389,186.860,179.725
0.087,10.012,1.329,1.329,226.260,186.789,179.858
0.088,10.203,1.346,1.346,226.120,186.721,179.970
0.089,10.390,1.366,1.366,225.972,186.659,180.066
0.091,10.575,1.386,1.386,225.817,186.604,180.150
0.092,10.756,1.404,1.404,225.660,186.557,180.227
0.093,10.935,1.420,1.420,225.502,186.520,180.302
0.094,11.110,1.435,1.435,225.347,186.494,180.380
0.095,11.282,1.450,1.450,225.198,186.480,180.464
0.097,11.453,1.465,1.465,225.057,186.479,180.560
0.098,11.625,1.483,1.483,224.927,186.493,180.672
0.099,11.803,1.504,1.504,224.810,186.523,180.802
0.100,11.986,1.528,1.528,224.706,186.566,180.947
0.101,12.174,1.558,1.558,224.614,186.619,181.102
0.103,12.364,1.593,1.593,224.533,186.679,181.263
0.104,12.551,1.632,1.632,224.463,186.744,181.424
0.105,12.732,1.673,1.673,224.403,186.812,181.581
0.106,12.902,1.715,1.715,224.353,186.878,181.729
0.107,13.057,1.755,1.755,224.311,186.942,181.865
0.108,13.192,1.792,1.792,224.278,186.999,181.982
0.110,13.302,1.825,1.825,224.251,187.048,182.076
0.111,13.382,1.852,1.852,224.231,187.086,182.144
0.112,13.435,1.871,1.871,224.218,187.113,182.188
0.113,13.465,1.882,1.882,224.209,187.130,182.211
0.114,13.476,1.887,1.887,224.206,187.139,182.217
0.116,13.484,1.886,1.886,224.206,187.141,182.209
0.117,13.502,1.880,1.880,224.210,187.135,182.192
0.118,13.528,1.870,1.870,224.216,187.125,182.170
0.119,13.559,1.858,1.858,224.225,187.110,182.145
0.120,13.590,1.843,1.843,224.235,187.091,182.121
0.122,13.620,1.828,1.828,224.246,187.070,182.102
0.123,13.646,1.812,1.812,224.257,187.049,182.093
0.124,13.669,1.798,1.798,224.268,187.029,182.093
0.125,13.690,1.787,1.787,224.281,187.017,182.105
0.126,13.718,1.781,1.781,224.295,187.017,182.129
0.128,13.762,1.782,1.782,224.311,187.034,182.167
0.129,13.829,1.790,1.790,224.330,187.072,182.217
0.130,13.924,1.808,1.808,224.353,187.137,182.283
0.131,14.052,1.838,1.838,224.379,187.234,182.363
0.132,14.219,1.880,1.880,224.410,187.367,182.460
0.133,14.430,1.935,1.935,224.446,187.540,182.573
0.135,14.689,2.003,2.003,224.488,187.760,182.705
0.136,14.995,2.082,2.082,224.535,188.023,182.853
0.137,15.338,2.173,2.173,224.586,188.320,183.017
0.138,15.707,2.274,2.274,224.638,188.639,183.196
0.139,16.094,2.386,2.386,224.690,188.971,183.387
0.141,16.488,2.509,2.509,224.739,189.305,183.590
0.142,16.879,2.640,2.640,224.785,189.631,183.802
0.143,17.259,2.781,2.781,224.825,189.939,184.022
0.144,17.619,2.927,2.927,224.857,190.217,184.248
0.145,17.952,3.078,3.078,224.880,190.455,184.479
0.147,18.254,3.230,3.230,224.891,190.644,184.714
0.148,18.525,3.382,3.382,224.890,190.777,184.950
0.149,18.775,3.531,3.531,224.878,190.860,185.185
0.150,19.012,3.676,3.676,224.858,190.900,185.418
0.151,19.241,3.814,3.814,224.830,190.904,185.645
0.153,19.465,3.942,3.942,224.796,190.877,185.866
0.154,19.685,4.061,4.061,224.759,190.828,186.076
0.155,19.898,4.170,4.170,224.720,190.762,186.275
0.156,20.102,4.269,4.269,224.680,190.686,186.460
0.157,20.292,4.358,4.358,224.642,190.607,186.629
0.159,20.464,4.436,4.436,224.608,190.532,186.780
0.160,20.614,4.503,4.503,224.577,190.466,186.910
0.161,20.741,4.560,4.560,224.552,190.409,187.022
0.162,20.849,4.605,4.605,224.530,190.362,187.116
0.163,20.938,4.640,4.640,224.512,190.323,187.194
0.164,21.011,4.666,4.666,224.498,190.290,187.258
0.166,21.069,4.683,4.683,224.486,190.265,187.309
0.167,21.115,4.695,4.695,224.476,190.245,187.349
0.168,21.149,4.701,4.701,224.468,190.230,187.379
0.169,21.175,4.703,4.703,224.461,190.219,187.401
0.170,21.193,4.704,4.704,224.455,190.211,187.416
0.172,21.206,4.704,4.704,224.450,190.206,187.427
0.173,21.215,4.704,4.704,224.445,190.202,187.434
0.174,21.221,4.705,4.705,224.441,190.200,187.437
0.175,21.226,4.706,4.706,224.437,190.199,187.439
0.176,21.229,4.707,4.707,224.434,190.197,187.440
0.178,21.232,4.708,4.708,224.432,190.195,187.440
0.179,21.235,4.709,4.709,224.432,190.192,187.441
0.180,21.240,4.710,4.710,224.432,190.188,187.444
0.181,21.249,4.710,4.710,224.434,190.181,187.449
0.182,21.262,4.709,4.709,224.437,190.171,187.457
0.184,21.281,4.707,4.707,224.441,190.158,187.469
0.185,21.305,4.705,4.705,224.447,190.141,187.486
0.186,21.334,4.702,4.702,224.455,190.122,187.506
0.187,21.366,4.699,4.699,224.463,190.101,187.529
0.188,21.400,4.696,4.696,224.471,190.079,187.553
0.190,21.435,4.693,4.693,224.479,190.056,187.579
0.191,21.470,4.691,4.691,224.487,190.034,187.605
0.192,21.504,4.689,4.689,224.493,190.012,187.630
0.193,21.535,4.688,4.688,224.499,189.992,187.654
0.194,21.563,4.687,4.687,224.503,189.975,187.675
0.195,21.587,4.687,4.687,224.505,189.961,187.694
0.197,21.605,4.687,4.687,224.505,189.950,187.709
0.198,21.620,4.687,4.687,224.503,189.942,187.722
0.199,21.634,4.686,4.686,224.499,189.936,187.733
0.200,21.646,4.684,4.684,224.493,189.931,187.743
0.201,21.660,4.682,4.682,224.485,189.926,187.753
0.203,21.675,4.679,4.679,224.476,189.921,187.764
0.204,21.692,4.674,4.674,224.466,189.914,187.776
0.205,21.712,4.669,4.669,224.455,189.906,187.791
0.206,21.737,4.663,4.663,224.443,189.895,187.809
0.207,21.767,4.658,4.658,224.430,189.881,187.832
0.209,21.802,4.652,4.652,224.416,189.862,187.859
0.210,21.842,4.648,4.648,224.402,189.840,187.889
0.211,21.887,4.644,4.644,224.387,189.816,187.923
0.212,21.934,4.642,4.642,224.371,189.790,187.959
0.213,21.983,4.641,4.641,224.353,189.762,187.996
0.215,22.032,4.641,4.641,224.335,189.735,188.032
0.216,22.081,4.641,4.641,224.316,189.707,188.068
0.217,22.129,4.641,4.641,224.295,189.681,188.102
0.218,22.174,4.639,4.639,224.272,189.657,188.133
0.219,22.216,4.636,4.636,224.249,189.636,188.161
0.221,22.255,4.629,4.629,224.223,189.617,188.183
0.222,22.292,4.620,4.620,224.198,189.600,188.205
0.223,22.330,4.606,4.606,224.174,189.582,188.228
0.224,22.372,4.588,4.588,224.153,189.561,188.257
0.225,22.423,4.567,4.567,224.137,189.533,188.296
0.226,22.487,4.546,4.546,224.127,189.496,188.348
0.228,22.572,4.524,4.524,224.126,189.448,188.417
0.229,22.682,4.504,4.504,224.135,189.385,188.508
0.230,22.823,4.486,4.486,224.155,189.307,188.623
0.231,23.000,4.472,4.472,224.189,189.209,188.767
0.232,23.219,4.464,4.464,224.238,189.090,188.943
0.234,23.474,4.461,4.461,224.300,188.951,189.149
0.235,23.758,4.464,4.464,224.374,188.798,189.376
0.236,24.061,4.471,4.471,224.455,188.635,189.618
0.237,24.372,4.481,4.481,224.540,188.469,189.867
0.238,24.682,4.494,4.494,224.627,188.304,190.115
0.240,24.982,4.509,4.509,224.713,188.145,190.354
0.241,25.262,4.525,4.525,224.793,187.997,190.578
0.242,25.512,4.540,4.540,224.866,187.866,190.777
0.243,25.722,4.554,4.554,224.928,187.757,190.946
0.244,25.883,4.566,4.566,224.976,187.675,191.076
0.246,25.993,4.577,4.577,225.009,187.620,191.165
0.247,26.058,4.587,4.587,225.030,187.590,191.220
0.248,26.088,4.596,4.596,225.040,187.579,191.245
0.249,26.093,4.604,4.604,225.043,187.581,191.248
0.250,26.111,4.611,4.611,225.040,187.594,191.235
0.251,26.140,4.618,4.618,225.035,187.611,191.212
0.253,26.173,4.624,4.624,225.030,187.628,191.185
0.254,26.200,4.630,4.630,225.027,187.640,191.160
0.255,26.217,4.636,4.636,225.028,187.642,191.144
0.256,26.232,4.643,4.643,225.037,187.630,191.143
0.257,26.270,4.652,4.652,225.054,187.600,191.161
0.259,26.334,4.662,4.662,225.079,187.555,191.197
0.260,26.420,4.675,4.675,225.110,187.495,191.250
0.261,26.524,4.691,4.691,225.146,187.423,191.317
0.262,26.645,4.710,4.710,225.186,187.341,191.396
0.263,26.779,4.732,4.732,225.227,187.251,191.487
0.265,26.923,4.759,4.759,225.269,187.155,191.586
0.266,27.074,4.789,4.789,225.310,187.056,191.691
0.267,27.228,4.822,4.822,225.348,186.955,191.802
0.268,27.384,4.858,4.858,225.383,186.854,191.916
0.269,27.539,4.895,4.895,225.412,186.755,192.031
0.271,27.691,4.935,4.935,225.438,186.660,192.147
0.272,27.842,4.975,4.975,225.462,186.567,192.264
0.273,27.991,5.016,5.016,225.485,186.478,192.381
0.274,28.138,5.057,5.057,225.509,186.393,192.498
0.275,28.284,5.099,5.099,225.536,186.311,192.616
0.277,28.428,5.140,5.140,225.568,186.234,192.734
0.278,28.572,5.180,5.180,225.605,186.161,192.851
0.279,28.715,5.220,5.220,225.651,186.093,192.969
0.280,28.859,5.258,5.258,225.706,186.031,193.086
0.281,29.005,5.296,5.296,225.773,185.973,193.202
0.282,29.153,5.331,5.331,225.850,185.920,193.318
0.284,29.303,5.365,5.365,225.936,185.872,193.431
0.285,29.455,5.397,5.397,226.029,185.828,193.543
0.286,29.607,5.427,5.427,226.127,185.787,193.651
0.287,29.758,5.455,5.455,226.230,185.750,193.755
0.288,29.907,5.480,5.480,226.334,185.714,193.856
0.290,30.052,5.504,5.504,226.438,185.681,193.951
0.291,30.192,5.525,5.525,226.541,185.649,194.040
0.292,30.326,5.545,5.545,226.641,185.617,194.123
0.293,30.451,5.562,5.562,226.736,185.586,194.199
0.294,30.567,5.577,5.577,226.824,185.556,194.268
0.296,30.672,5.589,5.589,226.903,185.526,194.332
0.297,30.766,5.598,5.598,226.971,185.500,194.391
0.298,30.848,5.604,5.604,227.025,185.477,194.447
0.299,30.918,5.606,5.606,227.065,185.458,194.502
0.300,30.978,5.604,5.604,227.087,185.445,194.556
0.302,31.034,5.598,5.598,227.090,185.439,194.611
0.303,31.094,5.586,5.586,227.071,185.440,194.669
0.304,31.169,5.570,5.570,227.028,185.450,194.730
0.305,31.266,5.550,5.550,226.960,185.470,194.795
0.306,31.387,5.527,5.527,226.867,185.500,194.866
0.308,31.528,5.503,5.503,226.753,185.538,194.939
0.309,31.683,5.479,5.479,226.624,185.581,195.013
0.310,31.845,5.457,5.457,226.485,185.629,195.085
0.311,32.010,5.439,5.439,226.344,185.679,195.153
0.312,32.170,5.426,5.426,226.204,185.728,195.213
0.313,32.319,5.418,5.418,226.073,185.776,195.265
0.315,32.451,5.418,5.418,225.955,185.818,195.304
0.316,32.559,5.422,5.422,225.856,185.855,195.330
0.317,32.639,5.427,5.427,225.782,185.883,195.339
0.318,32.688,5.431,5.431,225.736,185.901,195.330
0.319,32.720,5.432,5.432,225.715,185.912,195.310
0.321,32.746,5.427,5.427,225.711,185.919,195.285
0.322,32.770,5.414,5.414,225.718,185.925,195.262
0.323,32.789,5.389,5.389,225.729,185.934,195.250
0.324,32.807,5.351,5.351,225.737,185.949,195.255
0.325,32.845,5.300,5.300,225.735,185.973,195.284
0.327,32.918,5.237,5.237,225.718,186.010,195.345
0.328,33.039,5.165,5.165,225.677,186.062,195.446
0.329,33.217,5.085,5.085,225.606,186.134,195.593
0.330,33.461,4.998,4.998,225.500,186.228,195.792
0.331,33.766,4.905,4.905,225.362,186.342,196.038
0.333,34.117,4.809,4.809,225.198,186.472,196.320
0.334,34.499,4.711,4.711,225.016,186.613,196.625
0.335,34.899,4.612,4.612,224.823,186.761,196.942
0.336,35.301,4.516,4.516,224.627,186.911,197.260
0.337,35.692,4.424,4.424,224.434,187.059,197.567
0.338,36.058,4.340,4.340,224.253,187.201,197.850
0.340,36.382,4.265,4.265,224.091,187.332,198.099
0.341,36.653,4.203,4.203,223.954,187.447,198.302
0.342,36.855,4.155,4.155,223.851,187.543,198.448
0.343,36.991,4.124,4.124,223.782,187.619,198.536
0.344,37.073,4.113,4.113,223.745,187.679,198.579
0.346,37.122,4.116,4.116,223.737,187.726,198.587
0.347,37.166,4.131,4.131,223.753,187.765,198.573
0.348,37.223,4.152,4.152,223.790,187.800,198.547
0.349,37.292,4.174,4.174,223.846,187.833,198.523
0.350,37.373,4.191,4.191,223.916,187.870,198.511
0.352,37.466,4.200,4.200,223.998,187.913,198.523
0.353,37.581,4.195,4.195,224.087,187.967,198.571
0.354,37.731,4.171,4.171,224.181,188.036,198.666
0.355,37.925,4.127,4.127,224.276,188.121,198.813
0.356,38.160,4.067,4.067,224.372,188.218,199.004
0.358,38.426,3.993,3.993,224.466,188.324,199.228
0.359,38.714,3.910,3.910,224.558,188.436,199.478
0.360,39.015,3.821,3.821,224.645,188.550,199.742
0.361,39.318,3.730,3.730,224.727,188.663,200.012
0.362,39.614,3.641,3.641,224.802,188.770,200.278
0.364,39.893,3.557,3.557,224.868,188.868,200.530
0.365,40.144,3.481,3.481,224.925,188.953,200.759
0.366,40.358,3.413,3.413,224.970,189.023,200.956
0.367,40.526,3.351,3.351,225.003,189.074,201.113
0.368,40.654,3.295,3.295,225.025,189.104,201.235
0.369,40.747,3.242,3.242,225.036,189.115,201.327
0.371,40.815,3.192,3.192,225.038,189.104,201.394
0.372,40.874,3.142,3.142,225.030,189.072,201.443
0.373,40.940,3.092,3.092,225.015,189.017,201.478
0.374,41.025,3.039,3.039,224.994,188.941,201.507
0.375,41.131,2.985,2.985,224.966,188.841,201.533
0.377,41.262,2.929,2.929,224.934,188.718,201.564
0.378,41.419,2.871,2.871,224.898,188.571,201.604
0.379,41.602,2.814,2.814,224.859,188.401,201.659
0.380,41.809,2.756,2.756,224.817,188.211,201.728
0.381,42.032,2.700,2.700,224.772,188.008,201.810
0.383,42.266,2.646,2.646,224.724,187.798,201.903
0.384,42.505,2.595,2.595,224.672,187.588,202.005
0.385,42.743,2.546,2.546,224.617,187.385,202.113
0.386,42.972,2.500,2.500,224.558,187.193,202.226
0.387,43.190,2.452,2.452,224.496,187.020,202.342
0.389,43.389,2.403,2.403,224.429,186.873,202.459
0.390,43.567,2.349,2.349,224.359,186.757,202.574
0.391,43.724,2.289,2.289,224.283,186.678,202.686
0.392,43.866,2.221,2.221,224.204,186.636,202.796
0.393,44.004,2.143,2.143,224.122,186.626,202.907
0.395,44.147,2.052,2.052,224.036,186.642,203.020
0.396,44.300,1.951,1.951,223.948,186.678,203.140
0.397,44.465,1.843,1.843,223.858,186.728,203.269
0.398,44.643,1.733,1.733,223.767,186.788,203.410
0.399,44.834,1.624,1.624,223.676,186.852,203.565
0.400,45.039,1.520,1.520,223.584,186.913,203.738
0.402,45.259,1.427,1.427,223.493,186.967,203.931
0.403,45.497,1.347,1.347,223.402,187.007,204.148
0.404,45.753,1.285,1.285,223.314,187.031,204.387
0.405,46.024,1.244,1.244,223.229,187.041,204.643
0.406,46.303,1.223,1.223,223.148,187.038,204.911
0.408,46.587,1.218,1.218,223.073,187.022,205.184
0.409,46.870,1.227,1.227,223.004,186.997,205.457
0.410,47.146,1.247,1.247,222.943,186.963,205.724
0.411,47.410,1.274,1.274,222.892,186.922,205.980
0.412,47.656,1.307,1.307,222.852,186.875,206.218
0.414,47.878,1.343,1.343,222.823,186.825,206.433
0.415,48.072,1.377,1.377,222.807,186.772,206.618
0.416,48.234,1.410,1.410,222.804,186.718,206.771
0.417,48.368,1.441,1.441,222.814,186.665,206.894
0.418,48.479,1.470,1.470,222.834,186.613,206.990
0.420,48.572,1.497,1.497,222.862,186.564,207.063
0.421,48.650,1.522,1.522,222.896,186.518,207.116
0.422,48.717,1.544,1.544,222.935,186.478,207.154
0.423,48.776,1.564,1.564,222.976,186.445,207.179
0.424,48.828,1.582,1.582,223.018,186.418,207.195
0.426,48.874,1.596,1.596,223.059,186.401,207.206
0.427,48.913,1.608,1.608,223.097,186.394,207.216
0.428,48.949,1.616,1.616,223.130,186.397,207.226
0.429,48.982,1.620,1.620,223.158,186.409,207.240
0.430,49.017,1.619,1.619,223.181,186.428,207.259
0.431,49.053,1.613,1.613,223.199,186.450,207.282
0.433,49.092,1.601,1.601,223.211,186.472,207.312
0.434,49.135,1.582,1.582,223.218,186.492,207.348
0.435,49.183,1.557,1.557,223.220,186.508,207.393
0.436,49.238,1.525,1.525,223.216,186.515,207.448
0.437,49.303,1.489,1.489,223.206,186.512,207.512
0.439,49.382,1.450,1.450,223.191,186.496,207.588
0.440,49.478,1.411,1.411,223.171,186.464,207.676
0.441,49.591,1.373,1.373,223.145,186.416,207.775
0.442,49.721,1.338,1.338,223.113,186.351,207.883
0.443,49.865,1.308,1.308,223.076,186.271,207.997
0.445,50.021,1.285,1.285,223.033,186.176,208.114
0.446,50.190,1.269,1.269,222.985,186.066,208.232
0.447,50.368,1.262,1.262,222.932,185.942,208.349
0.448,50.556,1.262,1.262,222.873,185.805,208.462
0.449,50.751,1.271,1.271,222.808,185.654,208.568
0.451,50.954,1.287,1.287,222.738,185.490,208.666
0.452,51.164,1.311,1.311,222.663,185.315,208.752
0.453,51.378,1.342,1.342,222.583,185.129,208.825
0.454,51.595,1.380,1.380,222.500,184.939,208.887
0.455,51.811,1.425,1.425,222.414,184.748,208.937
0.456,52.021,1.476,1.476,222.327,184.560,208.976
0.458,52.221,1.530,1.530,222.241,184.382,209.005
0.459,52.408,1.586,1.586,222.156,184.217,209.024
0.460,52.576,1.642,1.642,222.074,184.070,209.034
0.461,52.723,1.694,1.694,221.997,183.945,209.036
0.462,52.845,1.742,1.742,221.924,183.848,209.030
0.464,52.938,1.783,1.783,221.859,183.783,209.017
0.465,53.007,1.815,1.815,221.801,183.751,208.998
0.466,53.061,1.837,1.837,221.752,183.745,208.975
0.467,53.108,1.850,1.850,221.714,183.759,208.951
0.468,53.150,1.855,1.855,221.688,183.785,208.929
0.470,53.188,1.855,1.855,221.675,183.816,208.912
0.471,53.217,1.850,1.850,221.677,183.843,208.901
0.472,53.241,1.842,1.842,221.694,183.860,208.900
0.473,53.278,1.833,1.833,221.728,183.859,208.912
0.474,53.342,1.824,1.824,221.781,183.833,208.939
0.476,53.445,1.817,1.817,221.853,183.774,208.983
0.477,53.593,1.812,1.812,221.945,183.677,209.047
0.478,53.782,1.810,1.810,222.055,183.547,209.127
0.479,54.001,1.810,1.810,222.176,183.389,209.220
0.480,54.243,1.812,1.812,222.307,183.213,209.322
0.482,54.498,1.818,1.818,222.441,183.023,209.427
0.483,54.758,1.826,1.826,222.576,182.828,209.534
0.484,55.013,1.838,1.838,222.706,182.634,209.636
0.485,55.254,1.853,1.853,222.827,182.449,209.731
