"T","Distance","Radius","FreeRadius","X","Y","Z"
0.000,0.000,1.387,1.387,190.808,221.544,224.148
0.001,0.051,1.380,1.380,190.764,221.535,224.171
0.002,0.100,1.374,1.374,190.721,221.525,224.194
0.003,0.148,1.368,1.368,190.679,221.514,224.216
0.005,0.194,1.363,1.363,190.642,221.501,224.239
0.006,0.238,1.361,1.361,190.608,221.485,224.261
0.007,0.279,1.360,1.360,190.579,221.465,224.283
0.008,0.318,1.361,1.361,190.557,221.441,224.305
0.009,0.357,1.366,1.366,190.542,221.412,224.326
0.010,0.398,1.374,1.374,190.536,221.377,224.348
0.011,0.444,1.385,1.385,190.539,221.336,224.368
0.013,0.498,1.399,1.399,190.552,221.288,224.389
0.014,0.563,1.415,1.415,190.577,221.232,224.408
0.015,0.639,1.433,1.433,190.614,221.168,224.428
0.016,0.726,1.452,1.452,190.660,221.097,224.446
0.017,0.823,1.472,1.472,190.715,221.019,224.465
0.018,0.926,1.492,1.492,190.774,220.937,224.482
0.019,1.034,1.511,1.511,190.838,220.851,224.500
0.021,1.146,1.529,1.529,190.903,220.762,224.517
0.022,1.258,1.545,1.545,190.967,220.671,224.534
0.023,1.370,1.561,1.561,191.028,220.580,224.551
0.024,1.478,1.575,1.575,191.085,220.489,224.567
0.025,1.581,1.588,1.588,191.134,220.399,224.584
0.026,1.679,1.601,1.601,191.175,220.313,224.600
0.027,1.768,1.612,1.612,191.204,220.229,224.616
0.029,1.851,1.623,1.623,191.222,220.150,224.632
0.030,1.928,1.634,1.634,191.230,220.075,224.648
0.031,2.000,1.645,1.645,191.229,220.004,224.662
0.032,2.069,1.655,1.655,191.223,219.937,224.675
0.033,2.134,1.665,1.665,191.212,219.874,224.686
0.034,2.196,1.675,1.675,191.198,219.814,224.696
0.036,2.254,1.685,1.685,191.184,219.758,224.702
0.037,2.309,1.695,1.695,191.171,219.705,224.706
0.038,2.360,1.704,1.704,191.160,219.656,224.706
0.039,2.407,1.713,1.713,191.154,219.609,224.703
0.040,2.451,1.722,1.722,191.155,219.566,224.695
0.041,2.494,1.731,1.731,191.164,219.525,224.683
0.042,2.539,1.739,1.739,191.181,219.487,224.667
0.044,2.586,1.747,1.747,191.204,219.451,224.648
0.045,2.635,1.754,1.754,191.233,219.418,224.626
0.046,2.685,1.760,1.760,191.266,219.387,224.603
0.047,2.737,1.765,1.765,191.301,219.358,224.579
0.048,2.788,1.767,1.767,191.337,219.331,224.555
0.049,2.837,1.769,1.769,191.372,219.306,224.532
0.050,2.883,1.768,1.768,191.405,219.281,224.512
0.052,2.925,1.765,1.765,191.435,219.259,224.493
0.053,2.961,1.760,1.760,191.461,219.237,224.479
0.054,2.991,1.754,1.754,191.479,219.216,224.469
0.055,3.014,1.746,1.746,191.491,219.196,224.464
0.056,3.034,1.739,1.739,191.495,219.177,224.463
0.057,3.053,1.731,1.731,191.492,219.158,224.467
0.058,3.073,1.725,1.725,191.483,219.141,224.472
0.060,3.096,1.719,1.719,191.469,219.124,224.479
0.061,3.122,1.715,1.715,191.450,219.109,224.486
0.062,3.149,1.712,1.712,191.427,219.094,224.492
0.063,3.178,1.710,1.710,191.402,219.081,224.497
0.064,3.209,1.707,1.707,191.373,219.069,224.498
0.065,3.241,1.703,1.703,191.343,219.059,224.495
0.066,3.274,1.695,1.695,191.312,219.050,224.487
0.068,3.309,1.682,1.682,191.281,219.042,224.472
0.069,3.348,1.663,1.663,191.250,219.036,224.451
0.070,3.391,1.637,1.637,191.218,219.028,224.423
0.071,3.440,1.602,1.602,191.185,219.016,224.388
0.072,3.497,1.558,1.558,191.150,218.996,224.348
0.073,3.563,1.508,1.508,191.111,218.966,224.303
0.074,3.642,1.454,1.454,191.069,218.923,224.254
0.076,3.734,1.397,1.397,191.021,218.864,224.200
0.077,3.845,1.341,1.341,190.967,218.786,224.144
0.078,3.976,1.288,1.288,190.906,218.686,224.085
0.079,4.131,1.239,1.239,190.838,218.561,224.024
0.080,4.313,1.198,1.198,190.761,218.408,223.962
0.081,4.525,1.166,1.166,190.674,218.224,223.899
0.082,4.769,1.145,1.145,190.578,218.010,223.836
0.084,5.038,1.134,1.134,190.474,217.769,223.774
0.085,5.327,1.132,1.132,190.365,217.509,223.713
0.086,5.628,1.139,1.139,190.253,217.236,223.654
0.087,5.936,1.154,1.154,190.140,216.955,223.599
0.088,6.244,1.176,1.176,190.028,216.673,223.548
0.089,6.545,1.205,1.205,189.920,216.395,223.501
0.090,6.833,1.239,1.239,189.817,216.129,223.460
0.092,7.102,1.279,1.279,189.723,215.879,223.426
0.093,7.345,1.323,1.323,189.639,215.653,223.399
0.094,7.556,1.369,1.369,189.567,215.456,223.379
0.095,7.728,1.416,1.416,189.510,215.294,223.369
0.096,7.860,1.463,1.463,189.468,215.169,223.368
0.097,7.956,1.507,1.507,189.440,215.077,223.373
0.099,8.022,1.548,1.548,189.424,215.014,223.385
0.100,8.064,1.583,1.583,189.419,214.976,223.400
0.101,8.089,1.612,1.612,189.422,214.959,223.419
0.102,8.111,1.632,1.632,189.433,214.959,223.439
0.103,8.140,1.645,1.645,189.449,214.972,223.458
0.104,8.174,1.651,1.651,189.469,214.994,223.476
0.105,8.212,1.652,1.652,189.491,215.020,223.491
0.107,8.249,1.650,1.650,189.514,215.048,223.501
0.108,8.282,1.646,1.646,189.536,215.072,223.505
0.109,8.308,1.641,1.641,189.556,215.089,223.501
0.110,8.330,1.636,1.636,189.573,215.097,223.490
0.111,8.353,1.633,1.633,189.587,215.098,223.472
0.112,8.380,1.633,1.633,189.598,215.091,223.448
0.113,8.413,1.635,1.635,189.607,215.079,223.419
0.115,8.452,1.640,1.640,189.613,215.060,223.385
0.116,8.497,1.647,1.647,189.617,215.037,223.348
0.117,8.545,1.655,1.655,189.619,215.009,223.308
0.118,8.598,1.663,1.663,189.620,214.978,223.265
0.119,8.653,1.673,1.673,189.619,214.944,223.222
0.120,8.710,1.682,1.682,189.616,214.907,223.179
0.121,8.767,1.690,1.690,189.612,214.869,223.136
0.123,8.824,1.698,1.698,189.607,214.831,223.094
0.124,8.881,1.705,1.705,189.601,214.791,223.054
0.125,8.938,1.711,1.711,189.594,214.750,223.015
0.126,8.995,1.716,1.716,189.585,214.709,222.977
0.127,9.052,1.721,1.721,189.576,214.666,222.940
0.128,9.110,1.725,1.725,189.566,214.622,222.905
0.129,9.168,1.729,1.729,189.554,214.577,222.870
0.131,9.227,1.733,1.733,189.542,214.530,222.836
0.132,9.287,1.736,1.736,189.529,214.482,222.803
0.133,9.348,1.739,1.739,189.514,214.432,222.771
0.134,9.411,1.742,1.742,189.499,214.380,222.739
0.135,9.475,1.746,1.746,189.482,214.326,222.708
0.136,9.541,1.750,1.750,189.465,214.271,222.677
0.137,9.608,1.756,1.756,189.446,214.214,222.646
0.139,9.676,1.763,1.763,189.427,214.156,222.616
0.140,9.745,1.772,1.772,189.407,214.097,222.586
0.141,9.815,1.783,1.783,189.386,214.038,222.556
0.142,9.885,1.796,1.796,189.364,213.978,222.525
0.143,9.955,1.812,1.812,189.342,213.919,222.495
0.144,10.025,1.829,1.829,189.319,213.861,222.464
0.145,10.094,1.847,1.847,189.295,213.804,222.433
0.147,10.162,1.865,1.865,189.271,213.749,222.401
0.148,10.229,1.883,1.883,189.246,213.696,222.369
0.149,10.295,1.900,1.900,189.221,213.645,222.336
0.150,10.359,1.915,1.915,189.196,213.596,222.302
0.151,10.421,1.928,1.928,189.170,213.551,222.268
0.152,10.481,1.939,1.939,189.145,213.509,222.234
0.153,10.537,1.946,1.946,189.120,213.471,222.202
0.155,10.589,1.952,1.952,189.095,213.436,222.171
0.156,10.638,1.956,1.956,189.072,213.405,222.142
0.157,10.681,1.959,1.959,189.049,213.379,222.116
0.158,10.719,1.962,1.962,189.027,213.357,222.093
0.159,10.752,1.965,1.965,189.007,213.340,222.074
0.160,10.778,1.968,1.968,188.988,213.329,222.060
0.162,10.799,1.973,1.973,188.972,213.322,222.050
0.163,10.814,1.980,1.980,188.957,213.322,222.046
0.164,10.827,1.988,1.988,188.944,213.326,222.047
0.165,10.841,1.996,1.996,188.933,213.333,222.052
0.166,10.856,2.003,2.003,188.923,213.340,222.060
0.167,10.871,2.009,2.009,188.913,213.347,222.069
0.168,10.885,2.013,2.013,188.903,213.350,222.078
0.170,10.898,2.013,2.013,188.893,213.347,222.085
0.171,10.914,2.009,2.009,188.881,213.337,222.091
0.172,10.938,1.999,1.999,188.868,213.317,222.092
0.173,10.974,1.985,1.985,188.853,213.285,222.088
0.174,11.024,1.966,1.966,188.835,213.239,222.078
0.175,11.092,1.945,1.945,188.814,213.177,222.059
0.176,11.179,1.922,1.922,188.790,213.098,222.032
0.178,11.287,1.901,1.901,188.762,213.000,221.996
0.179,11.414,1.883,1.883,188.732,212.885,221.950
0.180,11.559,1.868,1.868,188.700,212.755,221.896
0.181,11.719,1.860,1.860,188.667,212.611,221.833
0.182,11.895,1.859,1.859,188.634,212.454,221.762
0.183,12.084,1.867,1.867,188.603,212.285,221.684
0.184,12.285,1.885,1.885,188.573,212.105,221.598
0.186,12.497,1.914,1.914,188.545,211.917,221.505
0.187,12.719,1.955,1.955,188.521,211.720,221.404
0.188,12.949,2.008,2.008,188.501,211.518,221.298
0.189,13.186,2.075,2.075,188.487,211.309,221.185
0.190,13.429,2.157,2.157,188.478,211.097,221.067
0.191,13.676,2.254,2.254,188.475,210.883,220.943
0.192,13.924,2.367,2.367,188.478,210.670,220.817
0.194,14.170,2.495,2.495,188.487,210.460,220.689
0.195,14.411,2.632,2.632,188.503,210.257,220.560
0.196,14.645,2.774,2.774,188.524,210.062,220.433
0.197,14.869,2.916,2.916,188.551,209.877,220.308
0.198,15.081,3.053,3.053,188.584,209.707,220.187
0.199,15.278,3.179,3.179,188.623,209.552,220.072
0.200,15.458,3.290,3.290,188.668,209.417,219.963
0.202,15.618,3.381,3.381,188.719,209.302,219.862
0.203,15.758,3.448,3.448,188.775,209.212,219.771
0.204,15.879,3.490,3.490,188.838,209.146,219.691
0.205,15.985,3.512,3.512,188.905,209.104,219.621
0.206,16.082,3.518,3.518,188.977,209.083,219.560
0.207,16.174,3.513,3.513,189.052,209.078,219.506
0.208,16.265,3.500,3.500,189.129,209.088,219.460
0.210,16.356,3.484,3.484,189.208,209.109,219.419
0.211,16.449,3.468,3.468,189.288,209.139,219.384
0.212,16.542,3.458,3.458,189.368,209.174,219.352
0.213,16.635,3.457,3.457,189.448,209.212,219.323
0.214,16.725,3.464,3.464,189.525,209.250,219.296
0.215,16.812,3.478,3.478,189.601,209.284,219.270
0.216,16.894,3.498,3.498,189.673,209.312,219.243
0.218,16.970,3.522,3.522,189.741,209.332,219.216
0.219,17.042,3.548,3.548,189.807,209.343,219.189
0.220,17.111,3.575,3.575,189.871,209.346,219.161
0.221,17.179,3.601,3.601,189.933,209.340,219.135
0.222,17.248,3.624,3.624,189.995,209.325,219.110
0.223,17.318,3.644,3.644,190.057,209.301,219.088
0.225,17.392,3.661,3.661,190.121,209.269,219.067
0.226,17.472,3.676,3.676,190.186,209.227,219.050
0.227,17.558,3.689,3.689,190.255,209.176,219.037
0.228,17.652,3.703,3.703,190.327,209.116,219.028
0.229,17.756,3.718,3.718,190.403,209.047,219.024
0.230,17.869,3.734,3.734,190.485,208.968,219.025
0.231,17.992,3.753,3.753,190.571,208.881,219.031
0.233,18.123,3.777,3.777,190.661,208.786,219.043
0.234,18.260,3.804,3.804,190.754,208.686,219.058
0.235,18.401,3.836,3.836,190.846,208.582,219.077
0.236,18.543,3.869,3.869,190.938,208.475,219.099
0.237,18.685,3.903,3.903,191.027,208.368,219.123
0.238,18.824,3.937,3.937,191.112,208.261,219.149
0.239,18.958,3.970,3.970,191.191,208.156,219.176
0.241,19.085,4.000,4.000,191.264,208.055,219.203
0.242,19.203,4.026,4.026,191.328,207.960,219.230
0.243,19.310,4.048,4.048,191.382,207.872,219.256
0.244,19.404,4.065,4.065,191.424,207.791,219.280
0.245,19.487,4.078,4.078,191.456,207.718,219.304
0.246,19.564,4.089,4.089,191.478,207.649,219.329
0.247,19.639,4.100,4.100,191.494,207.581,219.357
0.249,19.717,4.112,4.112,191.504,207.511,219.389
0.250,19.801,4.127,4.127,191.511,207.436,219.427
0.251,19.897,4.147,4.147,191.516,207.353,219.474
0.252,20.006,4.172,4.172,191.522,207.259,219.530
0.253,20.134,4.206,4.206,191.530,207.151,219.597
0.254,20.284,4.247,4.247,191.541,207.025,219.678
0.255,20.458,4.297,4.297,191.559,206.880,219.774
0.257,20.663,4.356,4.356,191.585,206.712,219.886
0.258,20.899,4.422,4.422,191.620,206.518,220.017
0.259,21.162,4.498,4.498,191.663,206.302,220.162
0.260,21.447,4.582,4.582,191.714,206.071,220.320
0.261,21.746,4.674,4.674,191.769,205.829,220.485
0.262,22.051,4.776,4.776,191.828,205.582,220.655
0.263,22.356,4.885,4.885,191.889,205.336,220.826
0.265,22.655,5.001,5.001,191.951,205.096,220.993
0.266,22.940,5.120,5.120,192.011,204.869,221.153
0.267,23.203,5.239,5.239,192.068,204.659,221.303
0.268,23.439,5.354,5.354,192.120,204.474,221.439
0.269,23.641,5.462,5.462,192.166,204.317,221.556
0.270,23.800,5.560,5.560,192.204,204.195,221.652
0.271,23.914,5.645,5.645,192.233,204.111,221.724
0.273,23.987,5.713,5.713,192.253,204.062,221.773
0.274,24.025,5.762,5.762,192.266,204.041,221.803
0.275,24.040,5.793,5.793,192.272,204.042,221.816
0.276,24.058,5.809,5.809,192.273,204.061,221.814
0.277,24.091,5.814,5.814,192.269,204.091,221.802
0.278,24.133,5.809,5.809,192.261,204.126,221.780
0.279,24.178,5.799,5.799,192.251,204.161,221.753
0.281,24.222,5.784,5.784,192.239,204.190,221.723
0.282,24.259,5.770,5.770,192.227,204.208,221.693
0.283,24.290,5.757,5.757,192.215,204.208,221.665
0.284,24.323,5.749,5.749,192.204,204.185,221.642
0.285,24.375,5.746,5.746,192.195,204.136,221.627
0.286,24.448,5.747,5.747,192.188,204.065,221.617
0.288,24.539,5.753,5.753,192.183,203.974,221.612
0.289,24.646,5.762,5.762,192.179,203.867,221.613
0.290,24.765,5.775,5.775,192.177,203.749,221.617
0.291,24.892,5.792,5.792,192.176,203.621,221.623
0.292,25.025,5.813,5.813,192.175,203.489,221.632
0.293,25.159,5.836,5.836,192.176,203.355,221.642
0.294,25.291,5.862,5.862,192.177,203.224,221.652
0.296,25.417,5.890,5.890,192.178,203.098,221.662
0.297,25.534,5.920,5.920,192.180,202.982,221.670
0.298,25.637,5.951,5.951,192.182,202.878,221.676
0.299,25.727,5.982,5.982,192.184,202.788,221.680
0.300,25.806,6.012,6.012,192.186,202.710,221.682
0.301,25.875,6.042,6.042,192.188,202.641,221.683
0.302,25.936,6.069,6.069,192.189,202.580,221.683
0.304,25.992,6.094,6.094,192.190,202.524,221.684
0.305,26.045,6.117,6.117,192.191,202.471,221.686
0.306,26.097,6.138,6.138,192.190,202.419,221.690
0.307,26.151,6.158,6.158,192.190,202.365,221.696
0.308,26.208,6.178,6.178,192.188,202.309,221.706
0.309,26.272,6.199,6.199,192.186,202.247,221.719
0.310,26.344,6.221,6.221,192.182,202.177,221.736
0.312,26.427,6.245,6.245,192.178,202.097,221.758
0.313,26.520,6.272,6.272,192.173,202.008,221.785
0.314,26.623,6.303,6.303,192.166,201.909,221.814
0.315,26.734,6.337,6.337,192.158,201.803,221.843
0.316,26.851,6.374,6.374,192.148,201.689,221.871
0.317,26.974,6.412,6.412,192.137,201.569,221.896
0.318,27.102,6.451,6.451,192.124,201.444,221.915
0.320,27.233,6.490,6.490,192.109,201.314,221.928
0.321,27.367,6.527,6.527,192.092,201.181,221.932
0.322,27.504,6.562,6.562,192.074,201.046,221.926
0.323,27.644,6.593,6.593,192.053,200.909,221.908
0.324,27.787,6.621,6.621,192.030,200.771,221.875
0.325,27.935,6.646,6.646,192.005,200.633,221.827
0.326,28.088,6.669,6.669,191.979,200.495,221.767
0.328,28.244,6.691,6.691,191.955,200.356,221.700
0.329,28.403,6.715,6.715,191.933,200.214,221.632
0.330,28.564,6.742,6.742,191.916,200.068,221.567
0.331,28.725,6.773,6.773,191.906,199.918,221.510
0.332,28.886,6.809,6.809,191.905,199.762,221.466
0.333,29.051,6.852,6.852,191.914,199.600,221.441
0.334,29.222,6.904,6.904,191.936,199.430,221.439
0.336,29.406,6.962,6.962,191.972,199.252,221.466
0.337,29.610,7.027,7.027,192.024,199.064,221.526
0.338,29.843,7.096,7.096,192.094,198.865,221.625
0.339,30.110,7.168,7.168,192.183,198.655,221.764
0.340,30.408,7.242,7.242,192.288,198.438,221.940
0.341,30.732,7.316,7.316,192.405,198.215,222.144
0.342,31.074,7.390,7.390,192.530,197.990,222.370
0.344,31.427,7.462,7.462,192.660,197.767,222.610
0.345,31.782,7.531,7.531,192.790,197.549,222.858
0.346,32.132,7.595,7.595,192.918,197.338,223.106
0.347,32.468,7.656,7.656,193.039,197.138,223.348
0.348,32.783,7.710,7.710,193.149,196.952,223.576
0.349,33.067,7.759,7.759,193.245,196.784,223.784
0.351,33.313,7.802,7.802,193.324,196.636,223.964
0.352,33.512,7.837,7.837,193.380,196.512,224.109
0.353,33.662,7.864,7.864,193.413,196.412,224.216
0.354,33.769,7.883,7.883,193.425,196.335,224.289
0.355,33.842,7.894,7.894,193.416,196.275,224.330
0.356,33.895,7.897,7.897,193.391,196.231,224.345
0.357,33.948,7.895,7.895,193.349,196.199,224.336
0.359,34.013,7.888,7.888,193.295,196.175,224.309
0.360,34.094,7.879,7.879,193.229,196.156,224.267
0.361,34.187,7.868,7.868,193.154,196.139,224.214
0.362,34.290,7.857,7.857,193.072,196.121,224.153
0.363,34.400,7.848,7.848,192.986,196.097,224.090
0.364,34.514,7.841,7.841,192.896,196.066,224.027
0.365,34.630,7.838,7.838,192.806,196.023,223.969
0.367,34.747,7.838,7.838,192.717,195.967,223.918
0.368,34.866,7.840,7.840,192.628,195.901,223.873
0.369,34.987,7.844,7.844,192.541,195.825,223.835
0.370,35.111,7.850,7.850,192.456,195.741,223.804
0.371,35.235,7.858,7.858,192.373,195.652,223.779
0.372,35.361,7.866,7.866,192.293,195.557,223.761
0.373,35.485,7.876,7.876,192.215,195.460,223.749
0.375,35.609,7.886,7.886,192.141,195.362,223.744
0.376,35.730,7.897,7.897,192.071,195.263,223.744
0.377,35.847,7.908,7.908,192.005,195.167,223.751
0.378,35.959,7.919,7.919,191.943,195.074,223.764
0.379,36.066,7.932,7.932,191.887,194.985,223.783
0.380,36.167,7.945,7.945,191.834,194.902,223.807
0.381,36.265,7.958,7.958,191.786,194.822,223.835
0.383,36.359,7.973,7.973,191.740,194.745,223.866
0.384,36.452,7.988,7.988,191.696,194.670,223.898
0.385,36.544,8.005,8.005,191.653,194.596,223.930
0.386,36.636,8.022,8.022,191.610,194.521,223.962
0.387,36.729,8.040,8.040,191.566,194.444,223.991
0.388,36.824,8.057,8.057,191.521,194.365,224.016
0.389,36.921,8.075,8.075,191.473,194.282,224.037
0.391,37.023,8.092,8.092,191.423,194.195,224.052
0.392,37.131,8.108,8.108,191.368,194.102,224.060
0.393,37.248,8.122,8.122,191.308,194.002,224.059
0.394,37.372,8.136,8.136,191.244,193.896,224.053
0.395,37.505,8.148,8.148,191.177,193.782,224.045
0.396,37.645,8.160,8.160,191.108,193.660,224.037
0.397,37.793,8.173,8.173,191.038,193.530,224.033
0.399,37.947,8.189,8.189,190.968,193.392,224.036
0.400,38.110,8.210,8.210,190.899,193.245,224.049
0.401,38.281,8.238,8.238,190.832,193.090,224.076
0.402,38.463,8.273,8.273,190.768,192.926,224.120
0.403,38.657,8.318,8.318,190.709,192.752,224.184
0.404,38.867,8.373,8.373,190.655,192.568,224.270
0.405,39.097,8.440,8.440,190.607,192.375,224.384
0.407,39.347,8.516,8.516,190.566,192.172,224.524
0.408,39.616,8.600,8.600,190.532,191.962,224.689
0.409,39.899,8.689,8.689,190.504,191.747,224.871
0.410,40.191,8.782,8.782,190.481,191.530,225.065
0.411,40.486,8.876,8.876,190.464,191.315,225.267
0.412,40.780,8.969,8.969,190.452,191.103,225.469
0.414,41.065,9.059,9.059,190.443,190.898,225.668
0.415,41.337,9.144,9.144,190.438,190.702,225.857
0.416,41.590,9.223,9.223,190.436,190.518,226.031
0.417,41.818,9.295,9.295,190.436,190.349,226.184
0.418,42.016,9.358,9.358,190.439,190.197,226.310
0.419,42.179,9.413,9.413,190.442,190.066,226.405
0.420,42.305,9.457,9.457,190.447,189.955,226.466
0.422,42.402,9.491,9.491,190.452,189.863,226.496
0.423,42.479,9.512,9.512,190.458,189.786,226.498
0.424,42.548,9.522,9.522,190.463,189.721,226.474
0.425,42.620,9.517,9.517,190.469,189.666,226.430
0.426,42.700,9.500,9.500,190.474,189.616,226.367
0.427,42.790,9.473,9.473,190.478,189.570,226.290
0.428,42.890,9.436,9.436,190.482,189.523,226.201
0.430,42.999,9.393,9.393,190.484,189.474,226.104
0.431,43.115,9.345,9.345,190.485,189.419,226.002
0.432,43.236,9.294,9.294,190.484,189.354,225.899
0.433,43.363,9.242,9.242,190.481,189.277,225.798
0.434,43.495,9.191,9.191,190.476,189.189,225.701
0.435,43.631,9.143,9.143,190.469,189.090,225.607
0.436,43.769,9.098,9.098,190.461,188.984,225.519
0.438,43.908,9.056,9.056,190.451,188.874,225.436
0.439,44.044,9.017,9.017,190.441,188.763,225.358
0.440,44.176,8.982,8.982,190.431,188.652,225.286
0.441,44.302,8.951,8.951,190.420,188.545,225.221
0.442,44.418,8.922,8.922,190.410,188.445,225.163
0.443,44.523,8.898,8.898,190.400,188.353,225.112
0.444,44.614,8.877,8.877,190.391,188.274,225.069
0.446,44.689,8.859,8.859,190.383,188.208,225.035
0.447,44.744,8.844,8.844,190.376,188.160,225.009
0.448,44.781,8.832,8.832,190.371,188.128,224.991
0.449,44.803,8.823,8.823,190.367,188.109,224.979
0.450,44.813,8.816,8.816,190.365,188.101,224.974
0.451,44.815,8.810,8.810,190.364,188.101,224.973
0.452,44.821,8.806,8.806,190.364,188.107,224.975
0.454,44.830,8.803,8.803,190.365,188.115,224.979
0.455,44.840,8.800,8.800,190.367,188.123,224.983
0.456,44.848,8.798,8.798,190.369,188.129,224.987
0.457,44.852,8.796,8.796,190.373,188.130,224.989
0.458,44.860,8.794,8.794,190.376,188.123,224.989
0.459,44.879,8.792,8.792,190.381,188.105,224.984
0.460,44.911,8.790,8.790,190.385,188.074,224.974
0.462,44.956,8.789,8.789,190.390,188.033,224.960
0.463,45.010,8.787,8.787,190.396,187.981,224.942
0.464,45.072,8.786,8.786,190.401,187.923,224.922
0.465,45.139,8.784,8.784,190.407,187.859,224.902
0.466,45.209,8.783,8.783,190.413,187.793,224.882
0.467,45.279,8.782,8.782,190.420,187.726,224.864
