"T","Distance","Radius","FreeRadius","X","Y","Z"
0.000,0.000,1.387,1.387,190.808,221.544,224.148
0.001,0.139,1.446,1.446,190.936,221.507,224.107
0.002,0.277,1.505,1.505,191.062,221.471,224.067
0.004,0.412,1.562,1.562,191.186,221.434,224.028
0.005,0.543,1.616,1.616,191.306,221.399,223.990
0.006,0.668,1.668,1.668,191.421,221.364,223.955
0.007,0.786,1.715,1.715,191.530,221.331,223.922
0.008,0.895,1.758,1.758,191.630,221.298,223.893
0.009,0.995,1.795,1.795,191.721,221.267,223.867
0.011,1.083,1.825,1.825,191.802,221.238,223.846
0.012,1.159,1.850,1.850,191.871,221.211,223.830
0.013,1.221,1.869,1.869,191.927,221.186,223.819
0.014,1.270,1.883,1.883,191.969,221.163,223.815
0.015,1.306,1.894,1.894,191.999,221.142,223.815
0.016,1.335,1.901,1.901,192.019,221.122,223.819
0.018,1.358,1.907,1.907,192.031,221.103,223.826
0.019,1.380,1.912,1.912,192.039,221.084,223.834
0.020,1.402,1.917,1.917,192.043,221.065,223.843
0.021,1.424,1.922,1.922,192.047,221.045,223.852
0.022,1.446,1.928,1.928,192.054,221.024,223.858
0.024,1.472,1.934,1.934,192.064,221.002,223.862
0.025,1.502,1.941,1.941,192.081,220.977,223.862
0.026,1.540,1.946,1.946,192.106,220.949,223.856
0.027,1.589,1.952,1.952,192.143,220.918,223.845
0.028,1.648,1.956,1.956,192.188,220.884,223.828
0.029,1.714,1.958,1.958,192.239,220.849,223.806
0.031,1.784,1.959,1.959,192.293,220.813,223.781
0.032,1.855,1.958,1.958,192.348,220.777,223.752
0.033,1.926,1.955,1.955,192.401,220.742,223.721
0.034,1.993,1.950,1.950,192.448,220.708,223.688
0.035,2.053,1.943,1.943,192.488,220.676,223.655
0.037,2.106,1.933,1.933,192.517,220.647,223.622
0.038,2.149,1.922,1.922,192.532,220.623,223.590
0.039,2.185,1.908,1.908,192.532,220.603,223.559
0.040,2.222,1.892,1.892,192.514,220.588,223.531
0.041,2.263,1.873,1.873,192.483,220.578,223.506
0.042,2.306,1.853,1.853,192.446,220.571,223.485
0.044,2.347,1.835,1.835,192.410,220.566,223.466
0.045,2.380,1.819,1.819,192.381,220.562,223.452
0.046,2.398,1.808,1.808,192.367,220.556,223.441
0.047,2.410,1.803,1.803,192.374,220.548,223.435
0.048,2.446,1.808,1.808,192.408,220.538,223.434
0.049,2.518,1.823,1.823,192.478,220.522,223.438
0.051,2.631,1.850,1.850,192.589,220.500,223.447
0.052,2.793,1.890,1.890,192.748,220.471,223.461
0.053,3.010,1.942,1.942,192.960,220.434,223.482
0.054,3.274,2.001,2.001,193.219,220.389,223.507
0.055,3.577,2.066,2.066,193.516,220.338,223.537
0.057,3.907,2.133,2.133,193.840,220.284,223.569
0.058,4.256,2.199,2.199,194.183,220.226,223.603
0.059,4.613,2.261,2.261,194.533,220.168,223.639
0.060,4.969,2.316,2.316,194.882,220.110,223.674
0.061,5.313,2.362,2.362,195.220,220.055,223.708
0.062,5.636,2.399,2.399,195.538,220.003,223.739
0.064,5.928,2.428,2.428,195.824,219.956,223.768
0.065,6.179,2.452,2.452,196.071,219.916,223.792
0.066,6.380,2.473,2.473,196.269,219.885,223.811
0.067,6.534,2.494,2.494,196.420,219.862,223.824
0.068,6.645,2.517,2.517,196.530,219.847,223.830
0.069,6.718,2.544,2.544,196.603,219.840,223.827
0.071,6.761,2.577,2.577,196.644,219.840,223.816
0.072,6.788,2.619,2.619,196.659,219.848,223.795
0.073,6.824,2.666,2.666,196.652,219.862,223.762
0.074,6.878,2.718,2.718,196.628,219.883,223.718
0.075,6.949,2.771,2.771,196.594,219.909,223.661
0.077,7.037,2.822,2.822,196.552,219.942,223.591
0.078,7.140,2.870,2.870,196.510,219.980,223.505
0.079,7.256,2.911,2.911,196.471,220.023,223.405
0.080,7.384,2.943,2.943,196.436,220.071,223.292
0.081,7.520,2.964,2.964,196.405,220.121,223.169
0.082,7.662,2.972,2.972,196.377,220.174,223.040
0.084,7.806,2.970,2.970,196.354,220.228,222.909
0.085,7.948,2.960,2.960,196.334,220.282,222.779
0.086,8.086,2.944,2.944,196.317,220.336,222.653
0.087,8.216,2.924,2.924,196.302,220.387,222.535
0.088,8.334,2.901,2.901,196.291,220.436,222.428
0.090,8.437,2.878,2.878,196.282,220.481,222.335
0.091,8.522,2.858,2.858,196.275,220.521,222.261
0.092,8.585,2.841,2.841,196.270,220.555,222.208
0.093,8.630,2.827,2.827,196.266,220.583,222.173
0.094,8.659,2.816,2.816,196.264,220.605,222.155
0.095,8.677,2.805,2.805,196.262,220.622,222.148
0.097,8.689,2.795,2.795,196.260,220.633,222.150
0.098,8.698,2.784,2.784,196.257,220.639,222.157
0.099,8.706,2.771,2.771,196.253,220.639,222.165
0.100,8.716,2.755,2.755,196.248,220.634,222.170
0.101,8.728,2.734,2.734,196.241,220.624,222.170
0.102,8.749,2.708,2.708,196.231,220.608,222.160
0.104,8.782,2.677,2.677,196.218,220.588,222.138
0.105,8.830,2.642,2.642,196.202,220.564,222.099
0.106,8.896,2.604,2.604,196.182,220.534,222.044
0.107,8.977,2.562,2.562,196.160,220.499,221.974
0.108,9.072,2.517,2.517,196.135,220.460,221.891
0.110,9.181,2.470,2.470,196.109,220.415,221.796
0.111,9.300,2.421,2.421,196.081,220.366,221.690
0.112,9.430,2.370,2.370,196.054,220.311,221.576
0.113,9.569,2.318,2.318,196.026,220.250,221.454
0.114,9.716,2.266,2.266,195.999,220.184,221.326
0.115,9.869,2.214,2.214,195.972,220.113,221.193
0.117,10.027,2.163,2.163,195.948,220.036,221.057
0.118,10.189,2.113,2.113,195.926,219.953,220.920
0.119,10.353,2.067,2.067,195.905,219.866,220.782
0.120,10.518,2.023,2.023,195.886,219.776,220.645
0.121,10.680,1.982,1.982,195.868,219.685,220.513
0.122,10.838,1.946,1.946,195.849,219.595,220.385
0.124,10.989,1.914,1.914,195.831,219.507,220.263
0.125,11.131,1.886,1.886,195.811,219.422,220.150
0.126,11.263,1.862,1.862,195.790,219.343,220.047
0.127,11.381,1.841,1.841,195.767,219.272,219.956
0.128,11.484,1.824,1.824,195.741,219.209,219.878
0.130,11.570,1.809,1.809,195.711,219.157,219.815
0.131,11.640,1.798,1.798,195.679,219.118,219.769
0.132,11.696,1.790,1.790,195.642,219.089,219.737
0.133,11.745,1.783,1.783,195.602,219.070,219.716
0.134,11.791,1.778,1.778,195.559,219.059,219.702
0.135,11.838,1.773,1.773,195.514,219.054,219.691
0.137,11.887,1.767,1.767,195.467,219.053,219.679
0.138,11.938,1.759,1.759,195.419,219.055,219.662
0.139,11.994,1.748,1.748,195.369,219.057,219.637
0.140,12.057,1.733,1.733,195.318,219.058,219.601
0.141,12.130,1.712,1.712,195.267,219.056,219.548
0.143,12.219,1.686,1.686,195.216,219.049,219.475
0.144,12.328,1.656,1.656,195.165,219.036,219.380
0.145,12.457,1.624,1.624,195.115,219.017,219.262
0.146,12.605,1.592,1.592,195.066,218.993,219.125
0.147,12.767,1.563,1.563,195.019,218.965,218.972
0.148,12.942,1.539,1.539,194.973,218.936,218.806
0.150,13.125,1.521,1.521,194.928,218.906,218.631
0.151,13.314,1.513,1.513,194.885,218.876,218.449
0.152,13.506,1.516,1.516,194.845,218.849,218.264
0.153,13.697,1.531,1.531,194.807,218.825,218.078
0.154,13.884,1.557,1.557,194.771,218.806,217.896
0.155,14.063,1.590,1.590,194.739,218.793,217.720
0.157,14.233,1.630,1.630,194.709,218.787,217.553
0.158,14.392,1.674,1.673,194.682,218.788,217.396
0.159,14.540,1.719,1.719,194.656,218.793,217.250
0.160,14.677,1.765,1.765,194.630,218.802,217.116
0.161,14.803,1.809,1.809,194.604,218.811,216.993
0.163,14.918,1.850,1.850,194.575,218.819,216.882
0.164,15.023,1.886,1.886,194.543,218.825,216.783
0.165,15.117,1.919,1.920,194.506,218.825,216.696
0.166,15.202,1.950,1.950,194.464,218.819,216.622
0.167,15.282,1.978,1.979,194.416,218.804,216.561
0.168,15.360,2.005,2.006,194.360,218.779,216.513
0.170,15.442,2.030,2.031,194.295,218.742,216.479
0.171,15.531,2.056,2.056,194.223,218.694,216.456
0.172,15.625,2.081,2.081,194.149,218.638,216.444
0.173,15.721,2.107,2.106,194.075,218.577,216.438
0.174,15.813,2.132,2.130,194.006,218.515,216.436
0.176,15.898,2.155,2.152,193.947,218.455,216.437
0.177,15.971,2.174,2.171,193.899,218.399,216.436
0.178,16.027,2.189,2.185,193.868,218.352,216.432
0.179,16.066,2.197,2.194,193.858,218.316,216.422
0.180,16.097,2.198,2.196,193.871,218.295,216.404
0.181,16.148,2.191,2.190,193.913,218.291,216.375
0.183,16.235,2.173,2.175,193.986,218.308,216.332
0.184,16.357,2.146,2.152,194.088,218.344,216.275
0.185,16.508,2.112,2.121,194.212,218.396,216.208
0.186,16.681,2.073,2.086,194.353,218.460,216.131
0.187,16.868,2.031,2.046,194.504,218.533,216.046
0.188,17.062,1.989,2.004,194.657,218.612,215.956
0.190,17.257,1.948,1.961,194.807,218.691,215.862
0.191,17.443,1.910,1.918,194.947,218.768,215.766
0.192,17.615,1.878,1.878,195.071,218.840,215.671
0.193,17.766,1.853,1.840,195.172,218.902,215.578
0.194,17.890,1.833,1.806,195.244,218.950,215.489
0.196,17.986,1.816,1.776,195.280,218.982,215.405
0.197,18.066,1.799,1.749,195.281,218.997,215.327
0.198,18.146,1.781,1.726,195.252,218.995,215.253
0.199,18.238,1.760,1.706,195.197,218.979,215.180
0.200,18.348,1.732,1.691,195.123,218.949,215.105
0.201,18.473,1.696,1.679,195.033,218.908,215.029
0.203,18.612,1.650,1.671,194.933,218.856,214.947
0.204,18.763,1.594,1.666,194.828,218.794,214.858
0.205,18.923,1.532,1.662,194.723,218.725,214.760
0.206,19.089,1.466,1.660,194.623,218.650,214.650
0.207,19.261,1.400,1.657,194.533,218.569,214.527
0.208,19.440,1.337,1.651,194.457,218.484,214.389
0.210,19.625,1.281,1.642,194.400,218.397,214.237
0.211,19.816,1.235,1.629,194.361,218.307,214.072
0.212,20.013,1.202,1.609,194.340,218.217,213.899
0.213,20.214,1.185,1.582,194.340,218.126,213.719
0.214,20.419,1.182,1.550,194.359,218.035,213.537
0.216,20.626,1.191,1.514,194.400,217.945,213.354
0.217,20.836,1.210,1.478,194.463,217.857,213.174
0.218,21.048,1.237,1.442,194.547,217.772,213.000
0.219,21.262,1.268,1.410,194.655,217.690,212.834
0.220,21.480,1.302,1.383,194.787,217.612,212.679
0.221,21.702,1.336,1.364,194.943,217.539,212.538
0.223,21.930,1.367,1.355,195.121,217.471,212.413
0.224,22.163,1.395,1.357,195.315,217.408,212.301
0.225,22.399,1.420,1.369,195.521,217.349,212.204
0.226,22.634,1.443,1.388,195.734,217.295,212.120
0.227,22.866,1.464,1.413,195.949,217.245,212.048
0.229,23.090,1.485,1.443,196.159,217.199,211.988
0.230,23.302,1.505,1.476,196.361,217.156,211.939
0.231,23.498,1.526,1.511,196.550,217.117,211.901
0.232,23.673,1.548,1.545,196.719,217.081,211.872
0.233,23.824,1.572,1.579,196.865,217.048,211.853
0.234,23.945,1.597,1.609,196.981,217.018,211.843
0.236,24.037,1.622,1.636,197.069,216.989,211.839
0.237,24.105,1.644,1.658,197.132,216.962,211.841
0.238,24.157,1.663,1.675,197.174,216.934,211.846
0.239,24.197,1.676,1.686,197.201,216.904,211.852
0.240,24.234,1.683,1.689,197.217,216.871,211.856
0.241,24.272,1.681,1.683,197.226,216.834,211.857
0.243,24.315,1.669,1.669,197.232,216.792,211.854
0.244,24.366,1.647,1.645,197.241,216.743,211.842
0.245,24.429,1.617,1.615,197.256,216.686,211.822
0.246,24.507,1.583,1.581,197.282,216.619,211.789
0.247,24.605,1.548,1.546,197.323,216.543,211.744
0.249,24.724,1.516,1.514,197.379,216.457,211.683
0.250,24.860,1.488,1.488,197.447,216.365,211.609
0.251,25.010,1.470,1.470,197.521,216.271,211.520
0.252,25.168,1.463,1.463,197.598,216.177,211.418
0.253,25.333,1.471,1.470,197.674,216.088,211.302
0.254,25.502,1.494,1.492,197.744,216.006,211.172
0.256,25.672,1.531,1.528,197.803,215.935,211.029
0.257,25.844,1.581,1.576,197.848,215.878,210.873
0.258,26.019,1.641,1.635,197.875,215.838,210.705
0.259,26.202,1.711,1.704,197.878,215.820,210.523
0.260,26.397,1.788,1.782,197.855,215.825,210.330
0.261,26.610,1.871,1.867,197.805,215.855,210.125
0.263,26.840,1.958,1.958,197.733,215.907,209.912
0.264,27.086,2.049,2.055,197.644,215.976,209.694
0.265,27.343,2.139,2.154,197.544,216.060,209.473
0.266,27.606,2.228,2.254,197.437,216.155,209.252
0.267,27.870,2.312,2.352,197.329,216.259,209.034
0.269,28.131,2.389,2.448,197.224,216.368,208.822
0.270,28.382,2.456,2.537,197.127,216.478,208.618
0.271,28.618,2.511,2.620,197.045,216.588,208.425
0.272,28.835,2.552,2.692,196.981,216.692,208.247
0.273,29.028,2.576,2.754,196.941,216.789,208.085
0.274,29.197,2.582,2.801,196.926,216.876,207.941
0.276,29.347,2.573,2.836,196.936,216.957,207.815
0.277,29.483,2.551,2.855,196.969,217.033,207.707
0.278,29.611,2.517,2.859,197.024,217.105,207.616
0.279,29.737,2.473,2.847,197.098,217.175,207.543
0.280,29.867,2.421,2.817,197.191,217.246,207.486
0.282,30.004,2.364,2.770,197.301,217.318,207.446
0.283,30.153,2.303,2.705,197.427,217.395,207.423
0.284,30.315,2.240,2.621,197.566,217.477,207.416
0.285,30.492,2.177,2.521,197.719,217.567,207.426
0.286,30.685,2.113,2.410,197.882,217.666,207.451
0.287,30.891,2.050,2.293,198.054,217.773,207.490
0.289,31.108,1.989,2.174,198.233,217.885,207.537
0.290,31.330,1.929,2.057,198.417,217.997,207.590
0.291,31.551,1.873,1.947,198.603,218.107,207.642
0.292,31.768,1.821,1.848,198.788,218.209,207.689
0.293,31.976,1.774,1.764,198.971,218.300,207.727
0.294,32.171,1.732,1.699,199.149,218.376,207.751
0.296,32.351,1.695,1.649,199.320,218.433,207.756
0.297,32.517,1.663,1.614,199.481,218.466,207.737
0.298,32.673,1.636,1.591,199.630,218.473,207.691
0.299,32.831,1.615,1.578,199.765,218.449,207.612
0.300,33.004,1.599,1.573,199.885,218.394,207.500
0.302,33.197,1.588,1.574,199.991,218.313,207.361
0.303,33.409,1.582,1.579,200.085,218.212,207.200
0.304,33.638,1.581,1.587,200.169,218.095,207.022
0.305,33.877,1.585,1.596,200.244,217.968,206.834
0.306,34.120,1.593,1.606,200.312,217.836,206.641
0.307,34.361,1.604,1.616,200.374,217.705,206.449
0.309,34.593,1.617,1.628,200.432,217.580,206.262
0.310,34.809,1.631,1.640,200.488,217.466,206.088
0.311,35.001,1.647,1.652,200.543,217.369,205.931
0.312,35.165,1.662,1.665,200.598,217.293,205.797
0.313,35.298,1.677,1.677,200.655,217.241,205.688
0.314,35.406,1.691,1.689,200.712,217.211,205.603
0.316,35.493,1.703,1.700,200.769,217.199,205.537
0.317,35.567,1.715,1.711,200.826,217.205,205.490
0.318,35.633,1.726,1.722,200.880,217.224,205.458
0.319,35.697,1.736,1.733,200.932,217.256,205.438
0.320,35.761,1.745,1.743,200.981,217.296,205.429
0.322,35.826,1.755,1.754,201.025,217.343,205.426
0.323,35.891,1.764,1.764,201.065,217.395,205.429
0.324,35.954,1.773,1.774,201.099,217.448,205.434
0.325,36.014,1.783,1.784,201.127,217.500,205.438
0.326,36.068,1.792,1.793,201.149,217.550,205.441
0.327,36.120,1.801,1.802,201.167,217.598,205.441
0.329,36.168,1.809,1.809,201.184,217.644,205.440
0.330,36.216,1.816,1.816,201.203,217.687,205.436
0.331,36.263,1.821,1.822,201.225,217.728,205.431
0.332,36.312,1.825,1.826,201.254,217.767,205.424
0.333,36.366,1.828,1.828,201.292,217.804,205.415
0.335,36.427,1.828,1.828,201.341,217.838,205.404
0.336,36.499,1.827,1.827,201.405,217.871,205.391
0.337,36.585,1.824,1.823,201.484,217.901,205.377
0.338,36.689,1.819,1.819,201.583,217.929,205.361
0.339,36.812,1.814,1.813,201.701,217.956,205.343
0.340,36.951,1.807,1.807,201.837,217.981,205.325
0.342,37.104,1.799,1.799,201.987,218.006,205.306
0.343,37.270,1.791,1.791,202.150,218.032,205.286
0.344,37.446,1.782,1.782,202.323,218.060,205.267
0.345,37.630,1.774,1.774,202.503,218.090,205.249
0.346,37.819,1.768,1.768,202.688,218.124,205.231
0.347,38.010,1.766,1.766,202.875,218.161,205.215
0.349,38.203,1.770,1.770,203.062,218.204,205.201
0.350,38.395,1.780,1.780,203.247,218.253,205.190
0.351,38.583,1.800,1.800,203.427,218.308,205.181
0.352,38.767,1.830,1.830,203.600,218.370,205.176
0.353,38.945,1.873,1.873,203.764,218.439,205.176
0.355,39.116,1.929,1.929,203.918,218.514,205.182
0.356,39.281,1.996,1.996,204.062,218.594,205.195
0.357,39.438,2.070,2.070,204.192,218.679,205.217
0.358,39.589,2.146,2.146,204.310,218.768,205.249
0.359,39.733,2.221,2.221,204.412,218.860,205.293
0.360,39.873,2.290,2.290,204.497,218.955,205.349
0.362,40.010,2.350,2.350,204.565,219.052,205.419
0.363,40.149,2.395,2.395,204.614,219.150,205.504
0.364,40.295,2.423,2.423,204.643,219.249,205.606
0.365,40.450,2.431,2.431,204.651,219.350,205.724
0.366,40.616,2.423,2.423,204.641,219.453,205.855
0.367,40.795,2.402,2.402,204.615,219.561,205.994
0.369,40.983,2.372,2.372,204.576,219.677,206.138
0.370,41.181,2.336,2.336,204.525,219.801,206.282
0.371,41.385,2.299,2.299,204.465,219.938,206.423
0.372,41.597,2.263,2.263,204.398,220.087,206.556
0.373,41.814,2.233,2.233,204.328,220.252,206.679
0.375,42.037,2.211,2.211,204.255,220.435,206.786
0.376,42.269,2.199,2.199,204.183,220.637,206.873
0.377,42.512,2.197,2.197,204.113,220.861,206.938
0.378,42.769,2.203,2.203,204.048,221.106,206.977
0.379,43.038,2.218,2.218,203.988,221.367,206.994
0.380,43.315,2.241,2.241,203.933,221.639,206.992
0.382,43.596,2.272,2.272,203.883,221.915,206.974
0.383,43.877,2.311,2.311,203.839,222.190,206.942
0.384,44.150,2.356,2.356,203.801,222.458,206.900
0.385,44.412,2.408,2.408,203.770,222.713,206.851
0.386,44.655,2.464,2.464,203.744,222.949,206.798
0.388,44.875,2.521,2.521,203.726,223.161,206.743
0.389,45.064,2.578,2.578,203.714,223.342,206.691
0.390,45.217,2.631,2.631,203.710,223.488,206.644
0.391,45.332,2.678,2.678,203.713,223.595,206.603
0.392,45.417,2.718,2.718,203.722,223.671,206.565
0.393,45.481,2.747,2.747,203.733,223.722,206.528
0.395,45.536,2.764,2.764,203.747,223.756,206.488
0.396,45.589,2.769,2.769,203.759,223.779,206.441
0.397,45.650,2.766,2.766,203.770,223.800,206.385
0.398,45.723,2.758,2.758,203.777,223.824,206.317
0.399,45.814,2.751,2.751,203.778,223.860,206.233
0.400,45.931,2.747,2.747,203.771,223.915,206.130
0.402,46.081,2.750,2.750,203.754,223.995,206.004
0.403,46.271,2.764,2.764,203.726,224.108,205.853
0.404,46.506,2.794,2.794,203.686,224.257,205.676
0.405,46.779,2.841,2.841,203.635,224.437,205.478
0.406,47.080,2.904,2.904,203.577,224.641,205.264
0.408,47.402,2.978,2.978,203.513,224.862,205.039
0.409,47.735,3.060,3.060,203.446,225.095,204.810
0.410,48.071,3.145,3.145,203.378,225.331,204.581
0.411,48.401,3.231,3.231,203.312,225.566,204.359
0.412,48.715,3.312,3.312,203.250,225.791,204.148
0.413,49.006,3.386,3.386,203.195,226.001,203.955
0.415,49.263,3.448,3.448,203.148,226.188,203.785
0.416,49.479,3.498,3.498,203.112,226.347,203.644
0.417,49.648,3.536,3.536,203.089,226.473,203.534
0.418,49.774,3.564,3.564,203.076,226.568,203.453
0.419,49.863,3.584,3.584,203.073,226.637,203.397
0.420,49.919,3.598,3.598,203.076,226.682,203.362
0.422,49.951,3.608,3.608,203.085,226.707,203.346
0.423,49.966,3.616,3.616,203.098,226.716,203.343
0.424,49.984,3.622,3.622,203.113,226.711,203.351
0.425,50.009,3.630,3.630,203.127,226.696,203.367
0.426,50.040,3.638,3.638,203.139,226.675,203.385
0.428,50.071,3.647,3.647,203.148,226.650,203.403
0.429,50.099,3.656,3.656,203.151,226.626,203.417
0.430,50.122,3.665,3.665,203.147,226.605,203.424
0.431,50.142,3.672,3.672,203.137,226.587,203.424
0.432,50.165,3.679,3.679,203.122,226.572,203.416
0.433,50.192,3.684,3.684,203.102,226.560,203.402
0.435,50.225,3.687,3.687,203.079,226.550,203.380
0.436,50.265,3.687,3.687,203.053,226.543,203.351
0.437,50.311,3.687,3.687,203.026,226.538,203.315
0.438,50.363,3.685,3.685,202.997,226.534,203.272
0.439,50.421,3.684,3.684,202.968,226.533,203.221
0.441,50.485,3.684,3.684,202.941,226.534,203.164
0.442,50.555,3.685,3.685,202.914,226.536,203.099
0.443,50.631,3.689,3.689,202.891,226.539,203.027
0.444,50.712,3.697,3.697,202.869,226.544,202.949
0.445,50.798,3.709,3.709,202.850,226.550,202.865
0.446,50.888,3.725,3.725,202.833,226.558,202.777
0.448,50.982,3.744,3.744,202.817,226.566,202.685
0.449,51.078,3.768,3.768,202.804,226.576,202.590
0.450,51.176,3.794,3.794,202.792,226.587,202.494
0.451,51.275,3.823,3.823,202.782,226.599,202.396
0.452,51.374,3.855,3.855,202.773,226.612,202.298
0.453,51.473,3.889,3.889,202.766,226.625,202.200
0.455,51.570,3.924,3.924,202.760,226.640,202.104
0.456,51.666,3.961,3.961,202.755,226.656,202.010
0.457,51.759,3.998,3.998,202.751,226.672,201.919
0.458,51.848,4.034,4.034,202.747,226.689,201.831
0.459,51.935,4.069,4.069,202.745,226.706,201.746
0.461,52.017,4.102,4.102,202.744,226.723,201.665
0.462,52.095,4.132,4.132,202.744,226.739,201.589
0.463,52.168,4.159,4.159,202.745,226.756,201.518
0.464,52.236,4.180,4.180,202.747,226.771,201.452
0.465,52.298,4.197,4.197,202.749,226.785,201.392
0.466,52.354,4.207,4.207,202.753,226.799,201.337
0.468,52.403,4.213,4.213,202.757,226.811,201.290
0.469,52.445,4.215,4.215,202.762,226.821,201.249
0.470,52.481,4.215,4.215,202.768,226.830,201.216
0.471,52.510,4.212,4.212,202.774,226.838,201.188
0.472,52.533,4.208,4.208,202.780,226.845,201.167
0.473,52.551,4.203,4.203,202.786,226.850,201.151
0.475,52.564,4.199,4.199,202.791,226.855,201.140
0.476,52.571,4.195,4.195,202.796,226.859,201.135
0.477,52.576,4.193,4.193,202.799,226.862,201.135
0.478,52.581,4.192,4.192,202.801,226.864,201.139
0.479,52.589,4.192,4.192,202.802,226.866,201.147
0.481,52.601,4.191,4.191,202.800,226.868,201.158
