"T","Distance","Radius","FreeRadius","X","Y","Z"
0.000,0.000,1.387,1.387,190.808,221.544,224.148
0.002,0.162,1.405,1.405,190.784,221.704,224.141
0.003,0.323,1.423,1.423,190.760,221.863,224.134
0.005,0.483,1.440,1.439,190.735,222.020,224.129
0.006,0.640,1.454,1.454,190.709,222.176,224.127
0.008,0.795,1.466,1.466,190.682,222.328,224.128
0.010,0.946,1.475,1.475,190.652,222.476,224.134
0.011,1.094,1.481,1.481,190.620,222.620,224.146
0.013,1.238,1.484,1.485,190.585,222.758,224.165
0.014,1.378,1.487,1.489,190.547,222.890,224.191
0.016,1.514,1.494,1.495,190.505,223.016,224.225
0.018,1.649,1.505,1.506,190.459,223.135,224.267
0.019,1.782,1.523,1.524,190.408,223.250,224.314
0.021,1.917,1.552,1.551,190.353,223.362,224.363
0.022,2.053,1.590,1.588,190.293,223.473,224.413
0.024,2.192,1.636,1.633,190.226,223.585,224.462
0.026,2.334,1.686,1.685,190.153,223.698,224.507
0.027,2.481,1.739,1.741,190.074,223.816,224.546
0.029,2.635,1.791,1.800,189.987,223.939,224.577
0.030,2.797,1.839,1.861,189.893,224.069,224.598
0.032,2.968,1.883,1.921,189.792,224.207,224.608
0.034,3.146,1.924,1.981,189.685,224.350,224.608
0.035,3.330,1.965,2.042,189.574,224.496,224.598
0.037,3.518,2.009,2.103,189.461,224.644,224.580
0.039,3.706,2.060,2.165,189.347,224.792,224.553
0.040,3.894,2.119,2.228,189.234,224.938,224.520
0.042,4.078,2.189,2.293,189.123,225.080,224.481
0.043,4.257,2.269,2.358,189.016,225.215,224.436
0.045,4.428,2.353,2.422,188.914,225.344,224.387
0.047,4.588,2.437,2.485,188.819,225.462,224.334
0.048,4.737,2.519,2.544,188.732,225.570,224.280
0.050,4.874,2.593,2.600,188.652,225.667,224.227
0.051,4.996,2.655,2.649,188.579,225.751,224.176
0.053,5.103,2.705,2.692,188.514,225.822,224.128
0.055,5.193,2.744,2.729,188.458,225.878,224.087
0.056,5.265,2.772,2.760,188.409,225.919,224.054
0.058,5.317,2.793,2.785,188.369,225.944,224.031
0.059,5.351,2.807,2.804,188.338,225.952,224.019
0.061,5.376,2.816,2.816,188.316,225.941,224.021
0.063,5.406,2.820,2.823,188.301,225.918,224.033
0.064,5.441,2.822,2.826,188.294,225.889,224.051
0.066,5.476,2.821,2.825,188.292,225.859,224.071
0.067,5.504,2.820,2.823,188.295,225.837,224.088
0.069,5.518,2.820,2.821,188.302,225.829,224.097
0.071,5.534,2.820,2.820,188.311,225.842,224.094
0.072,5.579,2.822,2.822,188.322,225.881,224.075
0.074,5.663,2.828,2.828,188.333,225.955,224.036
0.075,5.795,2.840,2.839,188.342,226.068,223.971
0.077,5.972,2.857,2.856,188.351,226.221,223.881
0.079,6.185,2.882,2.881,188.357,226.403,223.770
0.080,6.424,2.915,2.915,188.362,226.605,223.642
0.082,6.679,2.959,2.959,188.365,226.818,223.502
0.083,6.938,3.011,3.011,188.365,227.031,223.355
0.085,7.192,3.065,3.065,188.363,227.235,223.204
0.087,7.431,3.118,3.118,188.358,227.421,223.055
0.088,7.645,3.164,3.164,188.350,227.580,222.910
0.090,7.826,3.199,3.199,188.339,227.700,222.776
0.091,7.972,3.218,3.218,188.325,227.779,222.654
0.093,8.090,3.221,3.221,188.309,227.819,222.544
0.095,8.191,3.211,3.211,188.292,227.829,222.445
0.096,8.283,3.193,3.193,188.274,227.815,222.356
0.098,8.370,3.171,3.171,188.256,227.782,222.277
0.100,8.456,3.150,3.150,188.239,227.737,222.206
0.101,8.538,3.134,3.134,188.224,227.687,222.142
0.103,8.615,3.127,3.127,188.212,227.638,222.085
0.104,8.682,3.127,3.127,188.202,227.596,222.033
0.106,8.738,3.132,3.132,188.197,227.567,221.986
0.108,8.784,3.140,3.140,188.196,227.550,221.943
0.109,8.823,3.150,3.150,188.198,227.544,221.905
0.111,8.857,3.159,3.159,188.203,227.546,221.871
0.112,8.887,3.165,3.165,188.210,227.555,221.842
0.114,8.916,3.168,3.168,188.220,227.567,221.818
0.116,8.942,3.169,3.169,188.230,227.582,221.799
0.117,8.966,3.168,3.168,188.242,227.596,221.784
0.119,8.985,3.165,3.165,188.254,227.608,221.775
0.120,9.001,3.162,3.162,188.266,227.616,221.771
0.122,9.014,3.158,3.158,188.278,227.620,221.769
0.124,9.026,3.154,3.154,188.291,227.622,221.768
0.125,9.040,3.150,3.150,188.303,227.622,221.764
0.127,9.057,3.143,3.143,188.317,227.622,221.753
0.128,9.081,3.135,3.135,188.331,227.624,221.733
0.130,9.118,3.124,3.124,188.346,227.629,221.701
0.132,9.169,3.109,3.109,188.363,227.638,221.653
0.133,9.240,3.091,3.091,188.381,227.653,221.586
0.135,9.334,3.070,3.070,188.401,227.676,221.497
0.136,9.451,3.046,3.046,188.422,227.706,221.386
0.138,9.586,3.019,3.019,188.442,227.743,221.257
0.140,9.735,2.991,2.991,188.460,227.786,221.116
0.141,9.892,2.962,2.962,188.473,227.834,220.967
0.143,10.052,2.932,2.932,188.480,227.885,220.816
0.144,10.211,2.901,2.901,188.478,227.939,220.666
0.146,10.364,2.869,2.869,188.466,227.994,220.524
0.148,10.507,2.837,2.837,188.442,228.050,220.394
0.149,10.638,2.803,2.803,188.403,228.104,220.281
0.151,10.757,2.770,2.770,188.349,228.157,220.189
0.152,10.868,2.735,2.735,188.284,228.207,220.115
0.154,10.974,2.701,2.701,188.211,228.253,220.055
0.156,11.074,2.669,2.669,188.134,228.295,220.006
0.157,11.168,2.641,2.641,188.057,228.332,219.964
0.159,11.256,2.618,2.618,187.986,228.363,219.926
0.161,11.333,2.602,2.602,187.923,228.387,219.887
0.162,11.401,2.596,2.596,187.873,228.403,219.843
0.164,11.463,2.598,2.598,187.840,228.411,219.792
0.165,11.526,2.605,2.605,187.828,228.409,219.730
0.167,11.601,2.614,2.614,187.835,228.400,219.656
0.169,11.691,2.620,2.620,187.860,228.384,219.571
0.170,11.793,2.619,2.619,187.897,228.364,219.478
0.172,11.906,2.609,2.609,187.943,228.342,219.377
0.173,12.027,2.586,2.586,187.995,228.320,219.270
0.175,12.153,2.553,2.553,188.050,228.300,219.158
0.177,12.282,2.515,2.515,188.104,228.284,219.043
0.178,12.409,2.475,2.475,188.153,228.274,218.926
0.180,12.534,2.438,2.438,188.194,228.273,218.808
0.181,12.655,2.407,2.407,188.226,228.279,218.691
0.183,12.771,2.387,2.387,188.248,228.293,218.578
0.185,12.883,2.377,2.377,188.262,228.311,218.469
0.186,12.987,2.375,2.375,188.267,228.333,218.367
0.188,13.083,2.380,2.380,188.266,228.356,218.274
0.189,13.168,2.390,2.390,188.258,228.378,218.192
0.191,13.242,2.402,2.402,188.244,228.399,218.122
0.193,13.303,2.414,2.414,188.225,228.415,218.067
0.194,13.349,2.427,2.427,188.201,228.425,218.029
0.196,13.384,2.438,2.438,188.174,228.429,218.008
0.197,13.411,2.446,2.446,188.147,228.428,218.001
0.199,13.435,2.453,2.453,188.125,228.423,218.003
0.201,13.453,2.455,2.455,188.110,228.417,218.011
0.202,13.464,2.454,2.454,188.107,228.411,218.021
0.204,13.480,2.448,2.448,188.120,228.408,218.028
0.205,13.512,2.437,2.437,188.152,228.408,218.029
0.207,13.569,2.421,2.421,188.208,228.415,218.020
0.209,13.657,2.398,2.398,188.291,228.430,217.996
0.210,13.780,2.370,2.370,188.404,228.455,217.953
0.212,13.934,2.335,2.335,188.544,228.488,217.896
0.213,14.111,2.293,2.293,188.702,228.527,217.826
0.215,14.303,2.247,2.247,188.871,228.572,217.750
0.217,14.500,2.199,2.199,189.045,228.620,217.670
0.218,14.695,2.153,2.153,189.217,228.669,217.592
0.220,14.878,2.111,2.111,189.378,228.718,217.520
0.222,15.042,2.077,2.077,189.523,228.764,217.459
0.223,15.178,2.053,2.053,189.643,228.806,217.411
0.225,15.279,2.039,2.039,189.733,228.842,217.383
0.226,15.346,2.032,2.032,189.792,228.870,217.372
0.228,15.389,2.030,2.030,189.830,228.893,217.376
0.230,15.420,2.029,2.029,189.853,228.908,217.390
0.231,15.448,2.027,2.027,189.870,228.918,217.409
0.233,15.476,2.021,2.021,189.889,228.922,217.429
0.234,15.510,2.008,2.008,189.919,228.920,217.446
0.236,15.560,1.992,1.992,189.968,228.913,217.455
0.238,15.637,1.972,1.972,190.043,228.901,217.451
0.239,15.750,1.951,1.951,190.154,228.884,217.431
0.241,15.905,1.930,1.930,190.303,228.863,217.392
0.242,16.094,1.910,1.910,190.481,228.838,217.337
0.244,16.305,1.893,1.893,190.680,228.811,217.270
0.246,16.529,1.879,1.879,190.889,228.781,217.196
0.247,16.757,1.867,1.867,191.100,228.751,217.116
0.249,16.977,1.858,1.858,191.303,228.721,217.036
0.250,17.180,1.852,1.852,191.488,228.691,216.959
0.252,17.355,1.848,1.848,191.646,228.662,216.888
0.254,17.494,1.846,1.846,191.768,228.636,216.827
0.255,17.588,1.846,1.846,191.846,228.613,216.780
0.257,17.644,1.847,1.847,191.886,228.594,216.746
0.258,17.674,1.848,1.848,191.899,228.579,216.723
0.260,17.692,1.849,1.849,191.893,228.569,216.710
0.262,17.707,1.849,1.849,191.879,228.564,216.706
0.263,17.720,1.847,1.847,191.866,228.565,216.708
0.265,17.731,1.843,1.843,191.865,228.572,216.715
0.266,17.757,1.839,1.839,191.885,228.586,216.727
0.268,17.814,1.835,1.835,191.935,228.608,216.740
0.270,17.910,1.834,1.833,192.025,228.637,216.755
0.271,18.044,1.835,1.834,192.154,228.674,216.769
0.273,18.210,1.840,1.840,192.313,228.717,216.781
0.274,18.398,1.850,1.850,192.495,228.765,216.789
0.276,18.600,1.864,1.865,192.691,228.815,216.793
0.278,18.808,1.881,1.883,192.892,228.866,216.791
0.279,19.015,1.901,1.903,193.092,228.918,216.781
0.281,19.211,1.923,1.925,193.280,228.968,216.762
0.283,19.389,1.946,1.947,193.450,229.016,216.734
0.284,19.543,1.970,1.968,193.592,229.059,216.693
0.286,19.671,1.993,1.989,193.703,229.097,216.641
0.287,19.780,2.014,2.009,193.787,229.130,216.580
0.289,19.875,2.034,2.027,193.847,229.160,216.513
0.291,19.962,2.051,2.044,193.888,229.185,216.441
0.292,20.042,2.063,2.061,193.913,229.207,216.368
0.294,20.119,2.072,2.075,193.927,229.227,216.295
0.295,20.190,2.076,2.088,193.933,229.244,216.226
0.297,20.255,2.077,2.100,193.935,229.259,216.163
0.299,20.311,2.076,2.110,193.938,229.272,216.109
0.300,20.357,2.074,2.117,193.945,229.285,216.065
0.302,20.396,2.074,2.122,193.956,229.297,216.030
0.303,20.429,2.075,2.125,193.971,229.310,216.003
0.305,20.459,2.079,2.126,193.989,229.323,215.983
0.307,20.489,2.085,2.124,194.011,229.337,215.969
0.308,20.520,2.092,2.122,194.036,229.352,215.957
0.310,20.554,2.100,2.118,194.064,229.369,215.949
0.311,20.592,2.106,2.115,194.095,229.389,215.941
0.313,20.633,2.112,2.112,194.128,229.412,215.932
0.315,20.678,2.115,2.111,194.164,229.438,215.922
0.316,20.727,2.117,2.111,194.201,229.468,215.910
0.318,20.779,2.118,2.112,194.239,229.500,215.897
0.319,20.832,2.119,2.114,194.278,229.534,215.884
0.321,20.887,2.122,2.119,194.318,229.569,215.872
0.323,20.941,2.125,2.125,194.357,229.606,215.862
0.324,20.995,2.131,2.132,194.395,229.643,215.855
0.326,21.047,2.140,2.141,194.432,229.680,215.851
0.327,21.097,2.148,2.150,194.467,229.715,215.852
0.329,21.145,2.157,2.158,194.500,229.750,215.858
0.331,21.191,2.163,2.164,194.530,229.783,215.870
0.332,21.234,2.167,2.167,194.557,229.813,215.885
0.334,21.275,2.166,2.165,194.580,229.840,215.904
0.335,21.311,2.160,2.160,194.599,229.864,215.924
0.337,21.343,2.152,2.151,194.615,229.883,215.944
0.339,21.369,2.143,2.142,194.626,229.898,215.962
0.340,21.389,2.135,2.134,194.632,229.907,215.979
0.342,21.402,2.130,2.129,194.632,229.910,215.991
0.343,21.411,2.130,2.130,194.627,229.907,215.999
0.345,21.425,2.136,2.136,194.617,229.897,216.000
0.347,21.445,2.145,2.146,194.604,229.883,215.998
0.348,21.466,2.156,2.156,194.590,229.868,215.992
0.350,21.485,2.165,2.165,194.578,229.854,215.986
0.352,21.499,2.169,2.169,194.569,229.844,215.980
0.353,21.504,2.165,2.165,194.568,229.842,215.977
0.355,21.514,2.151,2.151,194.575,229.849,215.978
0.356,21.541,2.128,2.128,194.593,229.868,215.984
0.358,21.590,2.097,2.097,194.625,229.903,215.997
0.360,21.664,2.063,2.063,194.672,229.955,216.020
0.361,21.760,2.026,2.026,194.734,230.023,216.049
0.363,21.875,1.990,1.990,194.807,230.105,216.082
0.364,22.005,1.957,1.957,194.890,230.198,216.117
0.366,22.144,1.929,1.929,194.979,230.300,216.151
0.368,22.290,1.904,1.904,195.072,230.408,216.182
0.369,22.439,1.880,1.880,195.166,230.521,216.206
0.371,22.587,1.859,1.859,195.260,230.634,216.221
0.372,22.731,1.837,1.837,195.349,230.747,216.224
0.374,22.868,1.815,1.815,195.433,230.856,216.212
0.376,23.000,1.792,1.792,195.509,230.960,216.188
0.377,23.126,1.769,1.769,195.579,231.060,216.154
0.379,23.247,1.746,1.746,195.642,231.155,216.114
0.380,23.363,1.725,1.725,195.699,231.246,216.072
0.382,23.471,1.706,1.706,195.751,231.332,216.033
0.384,23.571,1.691,1.691,195.798,231.414,216.000
0.385,23.662,1.680,1.680,195.840,231.492,215.978
0.387,23.745,1.672,1.672,195.878,231.566,215.970
0.388,23.823,1.667,1.667,195.912,231.635,215.980
0.390,23.902,1.665,1.665,195.943,231.702,216.010
0.392,23.987,1.663,1.663,195.970,231.766,216.057
0.393,24.079,1.662,1.662,195.995,231.831,216.117
0.395,24.178,1.661,1.661,196.016,231.898,216.188
0.396,24.285,1.658,1.658,196.035,231.969,216.265
0.398,24.397,1.655,1.655,196.052,232.046,216.345
0.400,24.515,1.650,1.650,196.066,232.131,216.425
0.401,24.637,1.644,1.644,196.079,232.226,216.501
0.403,24.764,1.637,1.637,196.090,232.332,216.570
0.404,24.898,1.629,1.629,196.099,232.452,216.629
0.406,25.036,1.619,1.619,196.106,232.581,216.677
0.408,25.177,1.608,1.608,196.111,232.717,216.716
0.409,25.319,1.596,1.596,196.114,232.855,216.747
0.411,25.457,1.583,1.583,196.114,232.991,216.770
0.413,25.588,1.570,1.570,196.110,233.122,216.787
0.414,25.710,1.557,1.557,196.104,233.243,216.797
0.416,25.818,1.544,1.544,196.094,233.350,216.803
0.417,25.910,1.532,1.532,196.080,233.440,216.805
0.419,25.981,1.522,1.522,196.062,233.510,216.804
0.421,26.036,1.516,1.516,196.041,233.560,216.801
0.422,26.079,1.514,1.514,196.019,233.597,216.796
0.424,26.116,1.519,1.519,195.999,233.627,216.791
0.425,26.149,1.531,1.531,195.982,233.655,216.786
0.427,26.184,1.549,1.549,195.971,233.688,216.782
0.429,26.227,1.571,1.571,195.969,233.731,216.780
0.430,26.286,1.597,1.597,195.977,233.790,216.782
0.432,26.370,1.623,1.623,195.998,233.871,216.787
0.433,26.484,1.648,1.648,196.033,233.979,216.796
0.435,26.631,1.670,1.670,196.085,234.116,216.810
0.437,26.802,1.689,1.689,196.153,234.273,216.828
0.438,26.992,1.707,1.707,196.236,234.442,216.848
0.440,27.193,1.724,1.724,196.335,234.616,216.869
0.441,27.399,1.743,1.743,196.450,234.785,216.889
0.443,27.604,1.765,1.765,196.581,234.943,216.907
0.445,27.805,1.791,1.791,196.726,235.080,216.922
0.446,27.999,1.824,1.824,196.887,235.188,216.933
0.448,28.189,1.861,1.861,197.062,235.260,216.938
0.449,28.380,1.903,1.903,197.251,235.291,216.937
0.451,28.575,1.949,1.949,197.446,235.286,216.933
0.453,28.771,1.998,1.998,197.640,235.257,216.929
0.454,28.961,2.048,2.048,197.824,235.211,216.929
0.456,29.135,2.100,2.100,197.990,235.158,216.936
0.457,29.286,2.148,2.148,198.131,235.107,216.955
0.459,29.405,2.189,2.189,198.238,235.069,216.988
0.461,29.490,2.218,2.218,198.304,235.051,217.038
0.462,29.565,2.230,2.230,198.320,235.063,217.111
0.464,29.682,2.220,2.220,198.280,235.114,217.208
0.465,29.855,2.184,2.184,198.193,235.204,217.328
0.467,30.077,2.125,2.125,198.071,235.326,217.467
0.469,30.334,2.050,2.050,197.932,235.478,217.622
0.470,30.615,1.970,1.970,197.788,235.653,217.787
0.472,30.906,1.893,1.893,197.657,235.847,217.960
0.474,31.199,1.828,1.828,197.552,236.056,218.136
0.475,31.485,1.785,1.785,197.488,236.274,218.311
0.477,31.766,1.770,1.770,197.480,236.496,218.481
0.478,32.048,1.781,1.781,197.544,236.718,218.643
0.480,32.346,1.818,1.818,197.679,236.937,218.794
0.482,32.666,1.879,1.879,197.873,237.150,218.933
0.483,33.006,1.964,1.964,198.111,237.356,219.060
0.485,33.357,2.070,2.070,198.379,237.552,219.176
0.486,33.710,2.195,2.195,198.662,237.738,219.278
0.488,34.054,2.334,2.334,198.944,237.911,219.368
0.490,34.375,2.477,2.477,199.213,238.069,219.445
0.491,34.660,2.617,2.616,199.453,238.210,219.507
0.493,34.898,2.745,2.745,199.650,238.334,219.556
0.494,35.080,2.854,2.854,199.795,238.438,219.591
0.496,35.213,2.935,2.936,199.893,238.525,219.614
0.498,35.308,2.989,2.990,199.953,238.598,219.625
0.499,35.376,3.020,3.020,199.983,238.658,219.627
0.501,35.427,3.030,3.030,199.991,238.709,219.622
0.502,35.472,3.024,3.025,199.984,238.752,219.610
0.504,35.516,3.006,3.006,199.972,238.791,219.594
0.506,35.558,2.980,2.979,199.961,238.826,219.575
0.507,35.599,2.950,2.948,199.960,238.862,219.554
0.509,35.645,2.920,2.918,199.976,238.899,219.533
0.510,35.700,2.895,2.892,200.011,238.936,219.511
0.512,35.766,2.879,2.876,200.062,238.969,219.488
0.514,35.843,2.878,2.875,200.130,238.996,219.463
0.515,35.932,2.894,2.894,200.213,239.011,219.433
0.517,36.035,2.931,2.934,200.310,239.012,219.399
0.518,36.153,2.986,2.994,200.421,238.997,219.360
0.520,36.289,3.055,3.066,200.543,238.960,219.313
0.522,36.445,3.136,3.148,200.676,238.898,219.259
0.523,36.625,3.223,3.233,200.819,238.810,219.196
0.525,36.826,3.314,3.316,200.969,238.697,219.125
0.526,37.042,3.404,3.394,201.125,238.568,219.047
0.528,37.266,3.490,3.465,201.281,238.431,218.963
0.530,37.490,3.567,3.529,201.436,238.295,218.876
0.531,37.705,3.632,3.588,201.586,238.169,218.787
0.533,37.905,3.682,3.642,201.728,238.061,218.697
0.535,38.083,3.711,3.692,201.859,237.979,218.609
0.536,38.236,3.717,3.739,201.976,237.933,218.523
0.538,38.365,3.701,3.782,202.076,237.930,218.441
0.539,38.484,3.669,3.818,202.156,237.973,218.364
0.541,38.610,3.630,3.847,202.220,238.056,218.293
0.543,38.749,3.590,3.865,202.269,238.169,218.228
0.544,38.901,3.556,3.871,202.305,238.304,218.169
0.546,39.060,3.535,3.862,202.330,238.452,218.117
0.547,39.221,3.533,3.839,202.348,238.605,218.071
0.549,39.376,3.544,3.805,202.359,238.754,218.032
0.551,39.516,3.567,3.766,202.367,238.891,218.000
0.552,39.634,3.595,3.725,202.372,239.006,217.975
0.554,39.723,3.626,3.688,202.378,239.093,217.957
0.555,39.784,3.654,3.659,202.384,239.153,217.946
0.557,39.821,3.677,3.643,202.390,239.188,217.940
0.559,39.836,3.694,3.639,202.395,239.202,217.939
0.560,39.842,3.705,3.644,202.400,239.199,217.941
0.562,39.862,3.711,3.657,202.403,239.179,217.944
0.563,39.894,3.713,3.676,202.404,239.148,217.950
0.565,39.934,3.710,3.698,202.404,239.108,217.955
0.567,39.981,3.704,3.723,202.401,239.061,217.959
0.568,40.031,3.695,3.746,202.396,239.012,217.961
0.570,40.079,3.684,3.767,202.389,238.964,217.960
0.571,40.121,3.671,3.783,202.382,238.923,217.959
0.573,40.150,3.658,3.792,202.377,238.894,217.956
0.575,40.161,3.645,3.791,202.375,238.884,217.953
0.576,40.175,3.632,3.778,202.379,238.896,217.950
0.578,40.218,3.621,3.753,202.389,238.938,217.948
0.579,40.296,3.611,3.721,202.408,239.013,217.947
0.581,40.415,3.605,3.686,202.437,239.129,217.948
0.583,40.580,3.602,3.652,202.479,239.289,217.952
0.584,40.791,3.602,3.624,202.532,239.493,217.958
0.586,41.036,3.608,3.608,202.595,239.729,217.965
0.587,41.303,3.618,3.605,202.665,239.987,217.971
0.589,41.579,3.632,3.613,202.739,240.253,217.976
0.591,41.854,3.648,3.629,202.815,240.517,217.978
0.592,42.115,3.663,3.649,202.890,240.767,217.975
0.594,42.350,3.677,3.669,202.960,240.991,217.966
0.596,42.547,3.687,3.685,203.024,241.177,217.949
0.597,42.696,3.692,3.694,203.079,241.314,217.924
0.599,42.794,3.691,3.696,203.123,241.394,217.889
0.600,42.861,3.685,3.690,203.156,241.426,217.840
0.602,42.931,3.674,3.678,203.180,241.421,217.775
0.604,43.021,3.658,3.661,203.195,241.392,217.691
0.605,43.135,3.639,3.640,203.202,241.350,217.585
0.607,43.273,3.616,3.615,203.203,241.306,217.454
0.608,43.436,3.591,3.590,203.198,241.272,217.295
0.610,43.626,3.569,3.568,203.189,241.261,217.105
0.612,43.852,3.555,3.554,203.176,241.283,216.881
0.613,44.120,3.553,3.552,203.160,241.349,216.622
0.615,44.428,3.568,3.567,203.143,241.455,216.333
0.616,44.766,3.603,3.603,203.126,241.593,216.026
0.618,45.119,3.662,3.662,203.110,241.754,215.711
0.620,45.476,3.737,3.737,203.096,241.927,215.400
0.621,45.821,3.821,3.821,203.086,242.104,215.103
0.623,46.142,3.906,3.906,203.081,242.275,214.832
0.624,46.425,3.985,3.985,203.082,242.431,214.596
0.626,46.654,4.049,4.049,203.090,242.562,214.407
0.628,46.819,4.094,4.094,203.107,242.659,214.277
0.629,46.917,4.118,4.118,203.131,242.721,214.203
0.631,46.967,4.126,4.126,203.157,242.752,214.176
0.632,46.993,4.122,4.121,203.183,242.758,214.182
0.634,47.030,4.107,4.107,203.202,242.745,214.210
0.636,47.077,4.087,4.087,203.211,242.719,214.248
0.637,47.126,4.064,4.064,203.206,242.685,214.283
0.639,47.174,4.041,4.041,203.182,242.649,214.304
0.640,47.232,4.017,4.017,203.135,242.616,214.297
0.642,47.322,3.994,3.994,203.061,242.593,214.252
0.644,47.460,3.970,3.970,202.958,242.583,214.161
0.645,47.640,3.948,3.948,202.830,242.584,214.033
0.647,47.853,3.926,3.926,202.686,242.594,213.878
0.648,48.086,3.906,3.906,202.531,242.610,213.705
0.650,48.327,3.886,3.886,202.371,242.631,213.525
0.652,48.565,3.866,3.866,202.213,242.654,213.348
0.653,48.789,3.845,3.845,202.063,242.676,213.184
