"T","Distance","Radius","FreeRadius","X","Y","Z"
0.000,0.000,1.215,1.215,-79.591,-57.913,-3.179
0.001,0.231,1.264,1.264,-79.632,-58.137,-3.215
0.003,0.457,1.313,1.313,-79.671,-58.358,-3.246
0.004,0.674,1.359,1.359,-79.705,-58.571,-3.269
0.006,0.877,1.402,1.402,-79.730,-58.773,-3.278
0.007,1.066,1.440,1.440,-79.745,-58.960,-3.269
0.008,1.238,1.473,1.473,-79.747,-59.130,-3.239
0.010,1.396,1.499,1.499,-79.732,-59.277,-3.181
0.011,1.550,1.517,1.517,-79.699,-59.398,-3.093
0.013,1.714,1.529,1.529,-79.645,-59.491,-2.969
0.014,1.904,1.536,1.536,-79.568,-59.551,-2.807
0.015,2.124,1.541,1.541,-79.471,-59.582,-2.611
0.017,2.371,1.543,1.543,-79.359,-59.588,-2.391
0.018,2.636,1.547,1.547,-79.238,-59.575,-2.155
0.020,2.911,1.552,1.552,-79.114,-59.546,-1.912
0.021,3.184,1.562,1.562,-78.991,-59.508,-1.671
0.022,3.446,1.576,1.576,-78.875,-59.464,-1.440
0.024,3.687,1.594,1.594,-78.771,-59.420,-1.228
0.025,3.894,1.614,1.614,-78.685,-59.380,-1.044
0.027,4.059,1.635,1.635,-78.621,-59.349,-0.895
0.028,4.181,1.657,1.657,-78.579,-59.328,-0.782
0.029,4.267,1.678,1.678,-78.556,-59.316,-0.700
0.031,4.324,1.698,1.698,-78.549,-59.312,-0.644
0.032,4.360,1.716,1.716,-78.555,-59.314,-0.608
0.034,4.386,1.732,1.732,-78.569,-59.322,-0.588
0.035,4.411,1.746,1.746,-78.589,-59.335,-0.580
0.036,4.438,1.758,1.758,-78.612,-59.350,-0.577
0.038,4.467,1.768,1.768,-78.633,-59.368,-0.575
0.039,4.493,1.776,1.776,-78.651,-59.387,-0.570
0.041,4.519,1.783,1.783,-78.664,-59.406,-0.557
0.042,4.546,1.788,1.788,-78.671,-59.420,-0.535
0.043,4.580,1.794,1.794,-78.673,-59.429,-0.503
0.045,4.625,1.801,1.801,-78.670,-59.428,-0.458
0.046,4.685,1.812,1.812,-78.662,-59.417,-0.399
0.048,4.766,1.828,1.828,-78.650,-59.390,-0.323
0.049,4.870,1.851,1.851,-78.634,-59.347,-0.230
0.050,5.001,1.881,1.881,-78.613,-59.285,-0.117
0.052,5.161,1.922,1.922,-78.589,-59.200,0.017
0.053,5.351,1.970,1.970,-78.561,-59.093,0.171
0.055,5.563,2.026,2.026,-78.531,-58.966,0.338
0.056,5.789,2.087,2.087,-78.501,-58.825,0.513
0.057,6.025,2.151,2.151,-78.471,-58.671,0.688
0.059,6.261,2.217,2.217,-78.442,-58.510,0.858
0.060,6.492,2.283,2.283,-78.416,-58.343,1.016
0.062,6.710,2.347,2.347,-78.394,-58.176,1.156
0.063,6.912,2.409,2.409,-78.378,-58.011,1.270
0.064,7.091,2.467,2.467,-78.368,-57.853,1.354
0.066,7.250,2.520,2.520,-78.364,-57.702,1.403
0.067,7.393,2.568,2.568,-78.365,-57.561,1.425
0.069,7.526,2.608,2.608,-78.366,-57.428,1.425
0.070,7.651,2.641,2.641,-78.366,-57.304,1.409
0.071,7.770,2.665,2.665,-78.361,-57.188,1.384
0.073,7.882,2.681,2.681,-78.348,-57.080,1.356
0.074,7.987,2.691,2.691,-78.326,-56.980,1.332
0.076,8.086,2.696,2.696,-78.290,-56.889,1.319
0.077,8.185,2.699,2.699,-78.238,-56.805,1.322
0.078,8.291,2.702,2.702,-78.168,-56.729,1.345
0.080,8.406,2.707,2.707,-78.085,-56.660,1.387
0.081,8.530,2.715,2.715,-77.992,-56.600,1.442
0.083,8.659,2.728,2.728,-77.893,-56.548,1.508
0.084,8.788,2.745,2.745,-77.794,-56.505,1.579
0.085,8.913,2.763,2.763,-77.699,-56.470,1.651
0.087,9.028,2.782,2.782,-77.611,-56.444,1.721
0.088,9.128,2.800,2.800,-77.536,-56.426,1.784
0.090,9.207,2.815,2.815,-77.478,-56.418,1.837
0.091,9.261,2.827,2.827,-77.440,-56.419,1.875
0.092,9.294,2.835,2.835,-77.419,-56.425,1.900
0.094,9.312,2.838,2.838,-77.412,-56.435,1.914
0.095,9.323,2.840,2.840,-77.415,-56.443,1.920
0.097,9.332,2.841,2.841,-77.423,-56.447,1.918
0.098,9.344,2.843,2.843,-77.433,-56.443,1.912
0.099,9.363,2.846,2.846,-77.440,-56.428,1.904
0.101,9.393,2.853,2.853,-77.441,-56.399,1.895
0.102,9.443,2.864,2.864,-77.431,-56.351,1.889
0.104,9.515,2.879,2.879,-77.407,-56.282,1.887
0.105,9.611,2.897,2.897,-77.368,-56.195,1.890
0.106,9.724,2.916,2.916,-77.316,-56.095,1.899
0.108,9.850,2.936,2.936,-77.252,-55.987,1.915
0.109,9.986,2.955,2.955,-77.178,-55.877,1.939
0.111,10.126,2.973,2.973,-77.094,-55.769,1.971
0.112,10.268,2.987,2.987,-77.003,-55.668,2.012
0.113,10.408,2.999,2.999,-76.906,-55.581,2.064
0.115,10.546,3.007,3.007,-76.804,-55.512,2.126
0.116,10.683,3.013,3.013,-76.698,-55.466,2.199
0.118,10.822,3.016,3.016,-76.589,-55.443,2.283
0.119,10.966,3.017,3.017,-76.478,-55.437,2.374
0.120,11.114,3.015,3.015,-76.364,-55.446,2.469
0.122,11.265,3.011,3.011,-76.249,-55.463,2.564
0.123,11.417,3.006,3.006,-76.131,-55.485,2.658
0.125,11.568,3.000,3.000,-76.012,-55.508,2.747
0.126,11.714,2.996,2.996,-75.892,-55.525,2.828
0.127,11.854,2.994,2.994,-75.770,-55.534,2.898
0.129,11.989,2.996,2.996,-75.648,-55.529,2.954
0.130,12.119,3.003,3.003,-75.526,-55.510,2.996
0.132,12.249,3.016,3.016,-75.403,-55.478,3.025
0.133,12.379,3.036,3.036,-75.282,-55.436,3.043
0.134,12.510,3.062,3.062,-75.161,-55.386,3.053
0.136,12.641,3.092,3.092,-75.043,-55.330,3.057
0.137,12.771,3.125,3.125,-74.927,-55.271,3.056
0.139,12.899,3.160,3.160,-74.814,-55.211,3.053
0.140,13.023,3.195,3.195,-74.705,-55.152,3.049
0.141,13.141,3.229,3.229,-74.601,-55.096,3.048
0.143,13.254,3.260,3.260,-74.501,-55.045,3.048
0.144,13.358,3.290,3.290,-74.407,-54.999,3.051
0.146,13.456,3.317,3.317,-74.319,-54.957,3.054
0.147,13.545,3.342,3.342,-74.238,-54.920,3.057
0.148,13.625,3.365,3.365,-74.165,-54.886,3.058
0.150,13.696,3.386,3.386,-74.100,-54.856,3.057
0.151,13.758,3.406,3.406,-74.045,-54.830,3.051
0.153,13.810,3.423,3.423,-74.000,-54.806,3.041
0.154,13.853,3.438,3.438,-73.965,-54.786,3.025
0.155,13.891,3.449,3.449,-73.941,-54.767,3.002
0.157,13.930,3.453,3.453,-73.927,-54.748,2.972
0.158,13.975,3.450,3.450,-73.921,-54.727,2.933
0.160,14.030,3.439,3.439,-73.921,-54.700,2.885
0.161,14.098,3.417,3.417,-73.926,-54.666,2.826
0.162,14.180,3.383,3.383,-73.934,-54.622,2.758
0.164,14.278,3.339,3.339,-73.944,-54.565,2.677
0.165,14.396,3.288,3.288,-73.954,-54.494,2.585
0.167,14.533,3.234,3.234,-73.963,-54.406,2.480
0.168,14.693,3.179,3.179,-73.969,-54.299,2.362
0.169,14.869,3.126,3.126,-73.972,-54.177,2.234
0.171,15.057,3.080,3.080,-73.973,-54.046,2.099
0.172,15.250,3.044,3.044,-73.972,-53.909,1.963
0.174,15.443,3.018,3.018,-73.971,-53.772,1.828
0.175,15.628,3.001,3.001,-73.968,-53.640,1.698
0.176,15.801,2.992,2.992,-73.964,-53.517,1.577
0.178,15.954,2.988,2.988,-73.961,-53.408,1.469
0.179,16.083,2.988,2.988,-73.958,-53.318,1.377
0.181,16.181,2.990,2.990,-73.955,-53.251,1.305
0.182,16.253,2.992,2.992,-73.954,-53.204,1.250
0.183,16.305,2.993,2.993,-73.953,-53.170,1.212
0.185,16.342,2.992,2.992,-73.953,-53.143,1.185
0.186,16.373,2.989,2.989,-73.953,-53.118,1.168
0.188,16.404,2.983,2.983,-73.954,-53.089,1.157
0.189,16.444,2.974,2.974,-73.956,-53.049,1.149
0.190,16.501,2.962,2.962,-73.958,-52.993,1.142
0.192,16.581,2.944,2.944,-73.961,-52.914,1.133
0.193,16.688,2.923,2.923,-73.964,-52.808,1.118
0.195,16.822,2.897,2.897,-73.968,-52.675,1.097
0.196,16.975,2.869,2.869,-73.971,-52.525,1.073
0.197,17.140,2.840,2.840,-73.975,-52.362,1.045
0.199,17.310,2.811,2.811,-73.979,-52.195,1.016
0.200,17.477,2.783,2.783,-73.983,-52.030,0.987
0.202,17.636,2.757,2.757,-73.986,-51.874,0.959
0.203,17.778,2.735,2.735,-73.989,-51.734,0.933
0.204,17.898,2.717,2.717,-73.991,-51.616,0.911
0.206,17.987,2.702,2.702,-73.993,-51.529,0.894
0.207,18.045,2.692,2.692,-73.994,-51.472,0.883
0.209,18.077,2.685,2.685,-73.995,-51.440,0.876
0.210,18.087,2.682,2.682,-73.995,-51.431,0.873
0.211,18.095,2.682,2.682,-73.994,-51.438,0.874
0.213,18.115,2.686,2.686,-73.994,-51.458,0.877
0.214,18.144,2.693,2.693,-73.994,-51.487,0.882
0.216,18.176,2.703,2.703,-73.993,-51.518,0.889
0.217,18.208,2.713,2.713,-73.993,-51.549,0.896
0.218,18.235,2.724,2.724,-73.993,-51.575,0.904
0.220,18.254,2.734,2.734,-73.994,-51.592,0.911
0.221,18.265,2.742,2.742,-73.995,-51.603,0.917
0.223,18.270,2.747,2.747,-73.995,-51.606,0.920
0.224,18.274,2.749,2.749,-73.996,-51.602,0.922
0.225,18.284,2.748,2.748,-73.995,-51.592,0.920
0.227,18.300,2.744,2.744,-73.994,-51.577,0.915
0.228,18.323,2.738,2.738,-73.991,-51.557,0.905
0.230,18.352,2.728,2.729,-73.987,-51.531,0.891
0.231,18.389,2.717,2.717,-73.982,-51.502,0.870
0.232,18.432,2.703,2.703,-73.975,-51.468,0.844
0.234,18.485,2.687,2.687,-73.967,-51.426,0.812
0.235,18.549,2.669,2.669,-73.960,-51.375,0.775
0.237,18.626,2.649,2.648,-73.954,-51.312,0.732
0.238,18.718,2.626,2.626,-73.951,-51.233,0.684
0.239,18.828,2.601,2.601,-73.951,-51.137,0.631
0.241,18.958,2.574,2.573,-73.955,-51.021,0.573
0.242,19.111,2.543,2.543,-73.964,-50.882,0.511
0.244,19.289,2.511,2.511,-73.980,-50.717,0.444
0.245,19.494,2.477,2.478,-74.003,-50.526,0.373
0.246,19.719,2.445,2.447,-74.029,-50.314,0.300
0.248,19.958,2.417,2.419,-74.057,-50.089,0.225
0.249,20.203,2.394,2.396,-74.082,-49.858,0.151
0.251,20.446,2.380,2.381,-74.103,-49.626,0.077
0.252,20.681,2.375,2.375,-74.116,-49.403,0.007
0.254,20.901,2.382,2.381,-74.118,-49.193,-0.060
0.255,21.099,2.399,2.397,-74.107,-49.005,-0.122
0.256,21.271,2.423,2.419,-74.079,-48.845,-0.176
0.258,21.414,2.450,2.445,-74.032,-48.718,-0.224
0.259,21.536,2.476,2.470,-73.969,-48.622,-0.263
0.261,21.645,2.497,2.492,-73.893,-48.550,-0.295
0.262,21.749,2.510,2.508,-73.808,-48.495,-0.320
0.263,21.850,2.511,2.513,-73.718,-48.453,-0.338
0.265,21.950,2.499,2.508,-73.626,-48.418,-0.351
0.266,22.047,2.478,2.496,-73.535,-48.382,-0.357
0.268,22.142,2.452,2.477,-73.451,-48.340,-0.358
0.269,22.235,2.424,2.457,-73.375,-48.287,-0.353
0.270,22.330,2.397,2.436,-73.312,-48.216,-0.344
0.272,22.432,2.375,2.418,-73.261,-48.128,-0.331
0.273,22.541,2.362,2.404,-73.220,-48.028,-0.315
0.275,22.657,2.358,2.398,-73.187,-47.919,-0.298
0.276,22.776,2.362,2.396,-73.161,-47.804,-0.280
0.277,22.897,2.372,2.399,-73.139,-47.686,-0.263
0.279,23.015,2.385,2.405,-73.119,-47.571,-0.247
0.280,23.128,2.401,2.413,-73.099,-47.461,-0.234
0.282,23.232,2.416,2.421,-73.077,-47.359,-0.224
0.283,23.325,2.429,2.428,-73.051,-47.270,-0.220
0.284,23.406,2.437,2.434,-73.022,-47.195,-0.220
0.286,23.475,2.442,2.439,-72.993,-47.132,-0.224
0.287,23.532,2.445,2.442,-72.964,-47.083,-0.230
0.289,23.577,2.446,2.444,-72.938,-47.047,-0.238
0.290,23.610,2.446,2.447,-72.918,-47.023,-0.246
0.291,23.628,2.446,2.449,-72.905,-47.011,-0.253
0.293,23.635,2.448,2.451,-72.902,-47.011,-0.259
0.294,23.650,2.452,2.454,-72.911,-47.022,-0.262
0.296,23.682,2.456,2.457,-72.934,-47.045,-0.261
0.297,23.728,2.461,2.459,-72.969,-47.075,-0.256
0.298,23.781,2.464,2.460,-73.009,-47.109,-0.250
0.300,23.832,2.463,2.458,-73.048,-47.141,-0.243
0.301,23.871,2.458,2.454,-73.078,-47.165,-0.237
0.303,23.890,2.448,2.446,-73.094,-47.176,-0.234
0.304,23.900,2.430,2.434,-73.087,-47.170,-0.236
0.305,23.946,2.407,2.418,-73.052,-47.140,-0.243
0.307,24.039,2.380,2.401,-72.981,-47.081,-0.259
0.308,24.187,2.353,2.383,-72.868,-46.989,-0.284
0.310,24.391,2.329,2.368,-72.713,-46.863,-0.319
0.311,24.636,2.310,2.357,-72.524,-46.712,-0.363
0.312,24.909,2.299,2.352,-72.314,-46.547,-0.416
0.314,25.195,2.299,2.354,-72.091,-46.377,-0.476
0.315,25.481,2.310,2.364,-71.868,-46.213,-0.543
0.317,25.751,2.328,2.378,-71.654,-46.063,-0.616
0.318,25.993,2.349,2.394,-71.461,-45.939,-0.693
0.319,26.194,2.369,2.407,-71.300,-45.851,-0.773
0.321,26.347,2.385,2.415,-71.180,-45.807,-0.857
0.322,26.459,2.391,2.415,-71.107,-45.813,-0.942
0.324,26.562,2.385,2.404,-71.073,-45.860,-1.027
0.325,26.675,2.365,2.381,-71.066,-45.937,-1.110
0.326,26.800,2.334,2.351,-71.077,-46.033,-1.189
0.328,26.928,2.298,2.317,-71.094,-46.136,-1.263
0.329,27.049,2.262,2.286,-71.106,-46.236,-1.329
0.331,27.151,2.230,2.263,-71.103,-46.322,-1.386
0.332,27.233,2.207,2.252,-71.074,-46.382,-1.433
0.333,27.310,2.199,2.259,-71.008,-46.405,-1.467
0.335,27.424,2.208,2.286,-70.898,-46.384,-1.486
0.336,27.585,2.231,2.330,-70.749,-46.324,-1.493
0.338,27.785,2.264,2.384,-70.571,-46.233,-1.490
0.339,28.014,2.304,2.442,-70.373,-46.119,-1.477
0.340,28.260,2.345,2.498,-70.163,-45.991,-1.458
0.342,28.512,2.383,2.545,-69.951,-45.857,-1.433
0.343,28.757,2.415,2.577,-69.747,-45.725,-1.406
0.345,28.983,2.436,2.588,-69.558,-45.604,-1.376
0.346,29.178,2.447,2.582,-69.394,-45.502,-1.348
0.347,29.331,2.451,2.561,-69.264,-45.426,-1.322
0.349,29.445,2.449,2.532,-69.165,-45.376,-1.298
0.350,29.525,2.444,2.500,-69.093,-45.347,-1.278
0.352,29.578,2.439,2.468,-69.044,-45.336,-1.261
0.353,29.612,2.436,2.443,-69.012,-45.340,-1.249
0.354,29.637,2.437,2.429,-68.994,-45.354,-1.240
0.356,29.661,2.443,2.426,-68.984,-45.375,-1.235
0.357,29.685,2.452,2.433,-68.978,-45.399,-1.236
0.359,29.710,2.463,2.445,-68.972,-45.423,-1.241
0.360,29.735,2.474,2.460,-68.960,-45.442,-1.251
0.361,29.763,2.484,2.475,-68.943,-45.457,-1.267
0.363,29.795,2.490,2.487,-68.921,-45.469,-1.286
0.364,29.831,2.492,2.494,-68.895,-45.479,-1.310
0.366,29.871,2.489,2.494,-68.868,-45.488,-1.338
0.367,29.914,2.483,2.488,-68.840,-45.499,-1.368
0.368,29.959,2.474,2.479,-68.812,-45.512,-1.401
0.370,30.005,2.464,2.468,-68.786,-45.529,-1.436
0.371,30.054,2.454,2.457,-68.763,-45.550,-1.473
0.373,30.105,2.445,2.446,-68.744,-45.579,-1.510
0.374,30.157,2.439,2.439,-68.729,-45.612,-1.549
0.375,30.210,2.436,2.435,-68.718,-45.648,-1.586
0.377,30.260,2.435,2.434,-68.709,-45.682,-1.621
0.378,30.304,2.435,2.434,-68.702,-45.711,-1.653
0.380,30.340,2.434,2.433,-68.696,-45.733,-1.681
0.381,30.366,2.431,2.430,-68.689,-45.743,-1.704
0.382,30.385,2.424,2.424,-68.681,-45.739,-1.720
0.384,30.410,2.412,2.412,-68.671,-45.717,-1.728
0.385,30.456,2.395,2.395,-68.658,-45.673,-1.728
0.387,30.523,2.370,2.371,-68.639,-45.610,-1.720
0.388,30.606,2.340,2.341,-68.610,-45.533,-1.708
0.389,30.701,2.304,2.304,-68.565,-45.450,-1.697
0.391,30.805,2.262,2.262,-68.500,-45.369,-1.689
0.392,30.921,2.214,2.214,-68.410,-45.296,-1.689
0.394,31.055,2.161,2.161,-68.289,-45.239,-1.701
0.395,31.217,2.102,2.102,-68.134,-45.205,-1.730
0.396,31.418,2.041,2.041,-67.938,-45.203,-1.778
0.398,31.672,1.981,1.981,-67.697,-45.237,-1.850
0.399,31.983,1.925,1.925,-67.411,-45.313,-1.948
0.401,32.341,1.877,1.877,-67.091,-45.421,-2.066
0.402,32.732,1.841,1.841,-66.748,-45.554,-2.198
0.403,33.142,1.819,1.819,-66.394,-45.703,-2.341
0.405,33.557,1.817,1.817,-66.039,-45.859,-2.488
0.406,33.960,1.832,1.832,-65.697,-46.015,-2.634
0.408,34.337,1.862,1.862,-65.379,-46.161,-2.773
0.409,34.673,1.902,1.902,-65.095,-46.290,-2.901
0.410,34.954,1.948,1.948,-64.859,-46.392,-3.012
0.412,35.168,1.996,1.996,-64.677,-46.462,-3.101
0.413,35.322,2.042,2.042,-64.546,-46.503,-3.170
0.415,35.425,2.082,2.082,-64.458,-46.520,-3.222
0.416,35.487,2.113,2.113,-64.407,-46.517,-3.257
0.417,35.521,2.137,2.137,-64.386,-46.500,-3.277
0.419,35.549,2.154,2.154,-64.389,-46.473,-3.285
0.420,35.586,2.166,2.166,-64.408,-46.441,-3.283
0.422,35.631,2.173,2.173,-64.437,-46.409,-3.271
0.423,35.678,2.177,2.177,-64.470,-46.381,-3.253
0.424,35.719,2.179,2.179,-64.499,-46.363,-3.230
0.426,35.756,2.180,2.180,-64.523,-46.352,-3.205
0.427,35.785,2.181,2.181,-64.541,-46.347,-3.183
0.429,35.805,2.182,2.182,-64.551,-46.345,-3.166
0.430,35.813,2.184,2.184,-64.553,-46.346,-3.158
0.431,35.823,2.188,2.188,-64.544,-46.347,-3.162
0.433,35.852,2.195,2.195,-64.523,-46.345,-3.183
0.434,35.905,2.205,2.205,-64.490,-46.340,-3.223
0.436,35.985,2.219,2.219,-64.443,-46.328,-3.286
0.437,36.095,2.235,2.235,-64.381,-46.308,-3.376
0.438,36.234,2.251,2.251,-64.306,-46.281,-3.489
0.440,36.393,2.264,2.264,-64.223,-46.248,-3.621
0.441,36.568,2.272,2.272,-64.136,-46.211,-3.768
0.443,36.751,2.272,2.272,-64.047,-46.171,-3.923
0.444,36.937,2.262,2.262,-63.962,-46.131,-4.084
0.445,37.119,2.240,2.240,-63.884,-46.091,-4.243
0.447,37.292,2.208,2.208,-63.817,-46.053,-4.398
0.448,37.449,2.170,2.170,-63.765,-46.020,-4.543
0.450,37.586,2.131,2.131,-63.731,-45.992,-4.673
0.451,37.705,2.097,2.097,-63.712,-45.969,-4.787
0.452,37.807,2.071,2.071,-63.700,-45.950,-4.887
0.454,37.897,2.059,2.059,-63.686,-45.932,-4.974
0.455,37.978,2.065,2.065,-63.661,-45.915,-5.049
0.457,38.059,2.090,2.090,-63.617,-45.895,-5.114
0.458,38.153,2.131,2.131,-63.545,-45.873,-5.170
0.459,38.275,2.185,2.185,-63.436,-45.845,-5.219
0.461,38.438,2.248,2.248,-63.283,-45.810,-5.261
0.462,38.652,2.317,2.317,-63.077,-45.767,-5.299
0.464,38.917,2.390,2.390,-62.819,-45.714,-5.334
0.465,39.218,2.461,2.461,-62.526,-45.654,-5.366
0.466,39.541,2.530,2.530,-62.211,-45.587,-5.398
0.468,39.872,2.593,2.593,-61.890,-45.515,-5.431
0.469,40.196,2.650,2.650,-61.578,-45.438,-5.465
0.471,40.498,2.699,2.699,-61.288,-45.358,-5.503
0.472,40.765,2.737,2.737,-61.038,-45.275,-5.546
0.473,40.985,2.764,2.764,-60.840,-45.192,-5.594
0.475,41.148,2.778,2.778,-60.711,-45.109,-5.649
0.476,41.265,2.778,2.778,-60.656,-45.027,-5.711
0.478,41.369,2.766,2.766,-60.664,-44.947,-5.778
0.479,41.488,2.746,2.746,-60.724,-44.870,-5.846
0.480,41.630,2.720,2.720,-60.825,-44.797,-5.913
0.482,41.789,2.692,2.692,-60.954,-44.728,-5.975
0.483,41.958,2.664,2.664,-61.101,-44.665,-6.031
0.485,42.127,2.640,2.640,-61.254,-44.608,-6.076
0.486,42.286,2.623,2.623,-61.401,-44.558,-6.109
0.487,42.424,2.611,2.611,-61.531,-44.516,-6.126
0.489,42.534,2.604,2.604,-61.635,-44.481,-6.126
0.490,42.623,2.599,2.599,-61.717,-44.449,-6.117
0.492,42.694,2.595,2.595,-61.780,-44.417,-6.104
0.493,42.755,2.590,2.590,-61.827,-44.380,-6.094
0.494,42.813,2.582,2.582,-61.861,-44.333,-6.094
0.496,42.881,2.571,2.571,-61.886,-44.271,-6.111
0.497,42.973,2.555,2.555,-61.907,-44.192,-6.152
0.499,43.098,2.535,2.535,-61.925,-44.090,-6.222
0.500,43.268,2.511,2.511,-61.945,-43.960,-6.329
0.501,43.487,2.484,2.484,-61.970,-43.801,-6.478
0.503,43.747,2.454,2.454,-61.998,-43.618,-6.661
0.504,44.038,2.422,2.422,-62.028,-43.419,-6.871
0.506,44.348,2.388,2.388,-62.056,-43.211,-7.099
0.507,44.665,2.353,2.353,-62.083,-43.001,-7.336
0.508,44.978,2.318,2.318,-62.104,-42.798,-7.573
0.510,45.276,2.285,2.285,-62.119,-42.609,-7.803
0.511,45.547,2.255,2.255,-62.125,-42.442,-8.015
0.513,45.780,2.230,2.230,-62.121,-42.303,-8.203
0.514,45.967,2.212,2.212,-62.104,-42.200,-8.358
0.515,46.111,2.200,2.200,-62.075,-42.131,-8.481
0.517,46.224,2.197,2.197,-62.034,-42.092,-8.579
0.518,46.317,2.200,2.200,-61.984,-42.078,-8.655
0.520,46.403,2.207,2.207,-61.923,-42.084,-8.716
0.521,46.491,2.216,2.216,-61.854,-42.107,-8.765
0.522,46.586,2.224,2.224,-61.776,-42.141,-8.808
0.524,46.689,2.231,2.231,-61.691,-42.183,-8.850
0.525,46.801,2.232,2.232,-61.601,-42.228,-8.896
0.527,46.920,2.228,2.228,-61.504,-42.272,-8.951
0.528,47.045,2.218,2.218,-61.404,-42.312,-9.014
0.529,47.176,2.204,2.204,-61.300,-42.351,-9.085
0.531,47.311,2.186,2.186,-61.195,-42.386,-9.161
0.532,47.448,2.165,2.165,-61.089,-42.420,-9.240
0.534,47.584,2.143,2.143,-60.984,-42.452,-9.321
0.535,47.718,2.120,2.120,-60.882,-42.482,-9.401
0.536,47.847,2.098,2.098,-60.783,-42.511,-9.480
0.538,47.970,2.077,2.077,-60.689,-42.538,-9.554
0.539,48.084,2.059,2.059,-60.601,-42.565,-9.623
0.541,48.190,2.045,2.045,-60.520,-42.590,-9.684
0.542,48.286,2.036,2.036,-60.444,-42.616,-9.739
0.543,48.375,2.033,2.033,-60.374,-42.643,-9.786
0.545,48.457,2.037,2.037,-60.308,-42.671,-9.827
0.546,48.534,2.050,2.050,-60.246,-42.701,-9.860
0.548,48.606,2.071,2.071,-60.187,-42.734,-9.886
0.549,48.675,2.095,2.095,-60.131,-42.771,-9.904
0.550,48.744,2.120,2.120,-60.077,-42.811,-9.915
0.552,48.814,2.143,2.143,-60.025,-42.857,-9.918
0.553,48.886,2.161,2.161,-59.973,-42.908,-9.914
0.555,48.962,2.170,2.170,-59.922,-42.963,-9.904
0.556,49.042,2.167,2.167,-59.871,-43.023,-9.888
0.557,49.124,2.151,2.151,-59.820,-43.085,-9.869
0.559,49.210,2.125,2.125,-59.770,-43.150,-9.846
0.560,49.297,2.093,2.093,-59.718,-43.216,-9.822
0.562,49.386,2.056,2.056,-59.666,-43.284,-9.796
0.563,49.476,2.018,2.018,-59.614,-43.352,-9.771
0.564,49.566,1.981,1.981,-59.560,-43.420,-9.747
0.566,49.656,1.950,1.950,-59.505,-43.488,-9.726
0.567,49.744,1.925,1.925,-59.450,-43.555,-9.709
0.569,49.831,1.907,1.907,-59.396,-43.622,-9.698
0.570,49.915,1.896,1.896,-59.345,-43.689,-9.696
0.571,49.997,1.890,1.890,-59.299,-43.756,-9.705
0.573,50.080,1.889,1.889,-59.257,-43.824,-9.726
0.574,50.164,1.893,1.893,-59.222,-43.893,-9.762
0.576,50.255,1.901,1.901,-59.195,-43.962,-9.814
0.577,50.357,1.913,1.913,-59.176,-44.033,-9.884
0.578,50.472,1.926,1.926,-59.167,-44.105,-9.974
0.580,50.600,1.938,1.938,-59.166,-44.177,-10.079
0.581,50.737,1.947,1.947,-59.171,-44.248,-10.196
0.583,50.879,1.951,1.951,-59.178,-44.317,-10.320
0.584,51.022,1.946,1.946,-59.187,-44.384,-10.447
0.585,51.163,1.931,1.931,-59.195,-44.446,-10.572
0.587,51.296,1.904,1.904,-59.199,-44.503,-10.692
