"T","Distance","Radius","FreeRadius","X","Y","Z"
0.000,0.000,1.376,1.376,210.218,192.432,173.215
0.001,0.128,1.421,1.421,210.164,192.391,173.106
0.003,0.253,1.464,1.464,210.110,192.351,173.000
0.004,0.374,1.502,1.503,210.056,192.314,172.898
0.006,0.489,1.534,1.534,210.002,192.282,172.803
0.007,0.594,1.556,1.557,209.947,192.254,172.717
0.009,0.690,1.566,1.567,209.892,192.234,172.642
0.010,0.774,1.563,1.563,209.836,192.223,172.580
0.012,0.847,1.546,1.545,209.779,192.221,172.534
0.013,0.912,1.521,1.519,209.721,192.230,172.506
0.015,0.975,1.491,1.488,209.663,192.252,172.498
0.016,1.040,1.463,1.460,209.607,192.284,172.507
0.018,1.103,1.441,1.439,209.558,192.320,172.527
0.019,1.159,1.431,1.430,209.523,192.355,172.553
0.021,1.200,1.438,1.439,209.507,192.385,172.577
0.022,1.226,1.461,1.466,209.515,192.403,172.594
0.024,1.265,1.495,1.503,209.553,192.403,172.597
0.025,1.342,1.535,1.544,209.627,192.382,172.582
0.027,1.473,1.574,1.583,209.741,192.333,172.541
0.028,1.667,1.607,1.614,209.901,192.251,172.468
0.030,1.928,1.629,1.630,210.109,192.135,172.362
0.031,2.243,1.634,1.626,210.355,191.991,172.228
0.033,2.596,1.625,1.605,210.629,191.827,172.076
0.034,2.974,1.605,1.575,210.921,191.651,171.913
0.036,3.361,1.578,1.542,211.220,191.471,171.747
0.037,3.743,1.549,1.514,211.517,191.294,171.586
0.039,4.103,1.522,1.499,211.802,191.129,171.438
0.040,4.429,1.502,1.503,212.063,190.983,171.310
0.042,4.704,1.490,1.532,212.291,190.864,171.211
0.043,4.919,1.488,1.580,212.477,190.778,171.148
0.045,5.078,1.493,1.639,212.623,190.723,171.118
0.046,5.195,1.505,1.701,212.737,190.693,171.115
0.048,5.285,1.523,1.761,212.824,190.682,171.135
0.049,5.362,1.545,1.809,212.891,190.683,171.171
0.051,5.434,1.570,1.839,212.946,190.689,171.217
0.052,5.505,1.598,1.848,212.995,190.695,171.269
0.054,5.576,1.629,1.843,213.044,190.694,171.320
0.055,5.649,1.665,1.830,213.101,190.681,171.364
0.057,5.733,1.704,1.816,213.171,190.647,171.396
0.058,5.838,1.749,1.808,213.259,190.593,171.414
0.060,5.964,1.799,1.814,213.360,190.518,171.422
0.061,6.110,1.855,1.839,213.474,190.427,171.423
0.063,6.272,1.917,1.884,213.598,190.322,171.422
0.064,6.448,1.982,1.946,213.728,190.205,171.421
0.066,6.633,2.051,2.018,213.864,190.078,171.424
0.067,6.825,2.120,2.096,214.002,189.945,171.436
0.069,7.020,2.188,2.176,214.139,189.808,171.459
0.070,7.218,2.255,2.254,214.274,189.669,171.498
0.072,7.415,2.318,2.324,214.404,189.532,171.554
0.073,7.611,2.378,2.387,214.527,189.397,171.625
0.075,7.803,2.434,2.444,214.643,189.268,171.707
0.076,7.989,2.486,2.495,214.750,189.145,171.797
0.078,8.164,2.536,2.541,214.846,189.032,171.890
0.079,8.325,2.582,2.584,214.931,188.931,171.982
0.081,8.469,2.625,2.625,215.003,188.842,172.070
0.082,8.592,2.666,2.664,215.061,188.769,172.149
0.084,8.689,2.702,2.699,215.104,188.714,172.216
0.085,8.757,2.733,2.730,215.130,188.677,172.268
0.087,8.799,2.757,2.755,215.142,188.659,172.304
0.088,8.823,2.773,2.772,215.146,188.654,172.327
0.090,8.838,2.780,2.780,215.146,188.659,172.341
0.091,8.851,2.777,2.777,215.148,188.669,172.348
0.093,8.867,2.765,2.765,215.158,188.682,172.351
0.094,8.892,2.747,2.747,215.179,188.693,172.354
0.096,8.932,2.727,2.728,215.219,188.698,172.359
0.097,8.995,2.711,2.712,215.281,188.693,172.369
0.099,9.089,2.702,2.702,215.372,188.674,172.388
0.100,9.218,2.704,2.704,215.492,188.639,172.416
0.102,9.373,2.721,2.721,215.635,188.591,172.452
0.103,9.548,2.753,2.753,215.795,188.534,172.494
0.105,9.734,2.796,2.796,215.964,188.470,172.539
0.106,9.924,2.845,2.845,216.136,188.403,172.584
0.108,10.109,2.898,2.898,216.302,188.335,172.628
0.109,10.281,2.950,2.950,216.456,188.271,172.668
0.111,10.432,2.997,2.997,216.592,188.212,172.703
0.112,10.554,3.037,3.037,216.701,188.163,172.728
0.114,10.641,3.068,3.068,216.778,188.126,172.744
0.115,10.695,3.091,3.091,216.825,188.101,172.751
0.117,10.721,3.106,3.106,216.846,188.087,172.751
0.118,10.727,3.115,3.115,216.847,188.082,172.748
0.120,10.742,3.117,3.117,216.832,188.086,172.743
0.121,10.770,3.114,3.114,216.807,188.096,172.739
0.123,10.805,3.105,3.105,216.775,188.112,172.739
0.124,10.844,3.092,3.092,216.743,188.133,172.746
0.126,10.884,3.076,3.076,216.715,188.157,172.761
0.127,10.926,3.058,3.058,216.695,188.183,172.788
0.129,10.974,3.039,3.039,216.686,188.210,172.826
0.130,11.029,3.021,3.021,216.685,188.239,172.873
0.132,11.089,3.003,3.003,216.691,188.269,172.925
0.133,11.153,2.987,2.987,216.701,188.300,172.979
0.135,11.217,2.972,2.972,216.714,188.332,173.033
0.136,11.280,2.956,2.956,216.727,188.366,173.084
0.138,11.338,2.940,2.940,216.739,188.402,173.129
0.139,11.390,2.922,2.922,216.748,188.438,173.164
0.141,11.434,2.901,2.901,216.751,188.476,173.187
0.142,11.475,2.876,2.876,216.748,188.516,173.197
0.144,11.516,2.849,2.849,216.741,188.556,173.199
0.145,11.558,2.820,2.820,216.733,188.597,173.201
0.147,11.600,2.790,2.790,216.726,188.638,173.209
0.148,11.647,2.761,2.761,216.723,188.679,173.231
0.150,11.707,2.735,2.735,216.728,188.720,173.274
0.151,11.789,2.711,2.711,216.743,188.760,173.345
0.153,11.905,2.691,2.691,216.772,188.799,173.450
0.154,12.063,2.675,2.675,216.816,188.837,173.597
0.156,12.271,2.661,2.661,216.879,188.873,173.792
0.157,12.525,2.648,2.648,216.959,188.907,174.031
0.159,12.812,2.636,2.636,217.052,188.938,174.300
0.160,13.119,2.622,2.622,217.152,188.969,174.588
0.162,13.432,2.607,2.607,217.257,188.997,174.883
0.163,13.740,2.590,2.590,217.360,189.023,175.172
0.165,14.030,2.571,2.571,217.459,189.047,175.443
0.166,14.287,2.552,2.552,217.548,189.070,175.683
0.168,14.500,2.536,2.536,217.622,189.090,175.881
0.169,14.655,2.522,2.522,217.679,189.108,176.024
0.171,14.748,2.513,2.513,217.715,189.125,176.109
0.172,14.790,2.510,2.510,217.734,189.138,176.144
0.174,14.802,2.513,2.513,217.738,189.149,176.142
0.175,14.831,2.519,2.519,217.733,189.155,176.114
0.177,14.875,2.526,2.526,217.720,189.157,176.071
0.178,14.923,2.533,2.533,217.704,189.153,176.026
0.180,14.964,2.537,2.537,217.687,189.144,175.990
0.181,14.989,2.536,2.536,217.674,189.129,175.975
0.183,15.018,2.529,2.529,217.668,189.106,175.991
0.184,15.084,2.515,2.515,217.671,189.076,176.049
0.186,15.187,2.497,2.497,217.683,189.040,176.145
0.187,15.320,2.477,2.477,217.702,189.000,176.271
0.189,15.474,2.458,2.458,217.727,188.957,176.417
0.190,15.641,2.441,2.441,217.754,188.913,176.576
0.192,15.812,2.429,2.429,217.783,188.870,176.739
0.193,15.978,2.423,2.423,217.811,188.831,176.897
0.195,16.130,2.422,2.422,217.836,188.796,177.043
0.196,16.259,2.425,2.425,217.857,188.767,177.167
0.198,16.357,2.430,2.430,217.871,188.747,177.262
0.199,16.422,2.434,2.434,217.878,188.736,177.325
0.201,16.460,2.437,2.437,217.881,188.735,177.363
0.202,16.479,2.437,2.437,217.880,188.744,177.380
0.204,16.499,2.432,2.432,217.877,188.763,177.382
0.205,16.530,2.423,2.423,217.874,188.794,177.374
0.207,16.573,2.410,2.410,217.873,188.835,177.362
0.208,16.628,2.395,2.395,217.875,188.888,177.351
0.210,16.694,2.377,2.377,217.881,188.954,177.346
0.211,16.773,2.356,2.356,217.894,189.031,177.354
0.213,16.867,2.335,2.335,217.914,189.121,177.377
0.214,16.977,2.311,2.311,217.940,189.220,177.415
0.216,17.097,2.286,2.286,217.971,189.326,177.464
0.217,17.225,2.259,2.259,218.005,189.435,177.521
0.219,17.357,2.230,2.230,218.040,189.546,177.583
0.220,17.488,2.199,2.199,218.076,189.653,177.649
0.222,17.614,2.164,2.164,218.109,189.756,177.714
0.223,17.731,2.128,2.128,218.140,189.851,177.776
0.225,17.836,2.089,2.089,218.165,189.934,177.833
0.226,17.923,2.053,2.053,218.185,190.004,177.881
0.228,17.992,2.020,2.020,218.198,190.060,177.920
0.229,18.044,1.993,1.993,218.206,190.104,177.948
0.231,18.082,1.974,1.974,218.211,190.136,177.966
0.232,18.105,1.967,1.967,218.212,190.159,177.973
0.234,18.120,1.971,1.971,218.212,190.173,177.968
0.235,18.138,1.986,1.986,218.210,190.180,177.952
0.237,18.166,2.009,2.009,218.210,190.182,177.924
0.238,18.207,2.035,2.035,218.210,190.180,177.883
0.240,18.262,2.063,2.063,218.213,190.174,177.829
0.241,18.328,2.090,2.090,218.219,190.169,177.764
0.243,18.401,2.112,2.112,218.226,190.167,177.691
0.244,18.476,2.128,2.128,218.233,190.172,177.616
0.246,18.551,2.135,2.135,218.239,190.189,177.543
0.247,18.624,2.133,2.133,218.242,190.220,177.478
0.249,18.698,2.120,2.120,218.240,190.272,177.424
0.250,18.782,2.096,2.096,218.233,190.346,177.387
0.252,18.886,2.059,2.059,218.218,190.448,177.371
0.253,19.022,2.007,2.007,218.195,190.582,177.381
0.255,19.197,1.944,1.944,218.163,190.749,177.421
0.256,19.408,1.875,1.875,218.123,190.946,177.487
0.258,19.648,1.804,1.804,218.078,191.165,177.573
0.259,19.909,1.738,1.738,218.030,191.401,177.673
0.261,20.180,1.682,1.682,217.983,191.645,177.782
0.262,20.455,1.640,1.640,217.940,191.892,177.894
0.264,20.723,1.618,1.618,217.902,192.135,178.002
0.265,20.977,1.614,1.614,217.873,192.366,178.102
0.267,21.207,1.622,1.622,217.856,192.579,178.187
0.268,21.406,1.639,1.639,217.852,192.768,178.251
0.270,21.574,1.660,1.660,217.862,192.929,178.294
0.271,21.713,1.680,1.680,217.883,193.065,178.317
0.273,21.828,1.694,1.694,217.912,193.177,178.323
0.274,21.924,1.700,1.700,217.946,193.266,178.316
0.276,22.003,1.698,1.698,217.982,193.334,178.298
0.277,22.069,1.692,1.692,218.017,193.384,178.272
0.279,22.124,1.683,1.683,218.048,193.415,178.240
0.280,22.168,1.673,1.673,218.072,193.431,178.206
0.282,22.205,1.664,1.664,218.086,193.433,178.172
0.283,22.238,1.660,1.660,218.089,193.423,178.141
0.285,22.270,1.659,1.659,218.083,193.406,178.115
0.286,22.299,1.662,1.662,218.072,193.387,178.096
0.288,22.321,1.667,1.667,218.060,193.371,178.086
0.289,22.333,1.673,1.673,218.051,193.363,178.086
0.291,22.348,1.677,1.677,218.049,193.368,178.100
0.292,22.386,1.680,1.680,218.056,193.392,178.129
0.294,22.455,1.679,1.679,218.078,193.439,178.174
0.295,22.562,1.674,1.674,218.118,193.514,178.239
0.297,22.713,1.669,1.669,218.178,193.623,178.324
0.298,22.903,1.663,1.663,218.259,193.761,178.428
0.300,23.125,1.659,1.659,218.357,193.922,178.544
0.301,23.370,1.658,1.658,218.470,194.100,178.669
0.303,23.628,1.662,1.662,218.593,194.287,178.796
0.304,23.890,1.672,1.672,218.725,194.476,178.922
0.306,24.149,1.687,1.687,218.862,194.660,179.042
0.307,24.396,1.706,1.706,219.002,194.833,179.150
0.309,24.622,1.728,1.728,219.140,194.987,179.241
0.310,24.821,1.749,1.749,219.274,195.116,179.311
0.312,24.991,1.770,1.770,219.403,195.217,179.358
0.313,25.137,1.788,1.788,219.525,195.292,179.384
0.315,25.265,1.803,1.803,219.640,195.347,179.393
0.316,25.380,1.814,1.814,219.749,195.385,179.388
0.318,25.485,1.822,1.822,219.850,195.410,179.371
0.319,25.583,1.828,1.828,219.943,195.426,179.347
0.321,25.674,1.832,1.832,220.028,195.437,179.319
0.322,25.757,1.834,1.834,220.106,195.447,179.288
0.324,25.833,1.834,1.834,220.174,195.460,179.260
0.325,25.900,1.834,1.834,220.234,195.480,179.236
0.327,25.961,1.832,1.832,220.286,195.505,179.217
0.328,26.017,1.829,1.829,220.331,195.536,179.202
0.330,26.070,1.824,1.824,220.369,195.570,179.190
0.331,26.120,1.817,1.817,220.402,195.606,179.182
0.333,26.167,1.808,1.808,220.431,195.643,179.176
0.334,26.212,1.797,1.797,220.457,195.680,179.172
0.336,26.254,1.784,1.784,220.479,195.715,179.170
0.337,26.293,1.770,1.770,220.501,195.747,179.170
0.339,26.327,1.756,1.756,220.521,195.775,179.169
0.340,26.358,1.743,1.743,220.541,195.799,179.169
0.342,26.386,1.732,1.732,220.561,195.819,179.169
0.343,26.411,1.725,1.725,220.579,195.835,179.170
0.345,26.433,1.720,1.720,220.597,195.848,179.170
0.346,26.452,1.719,1.719,220.613,195.858,179.170
0.348,26.469,1.720,1.720,220.628,195.867,179.170
0.349,26.485,1.722,1.722,220.642,195.874,179.170
0.351,26.498,1.725,1.725,220.654,195.880,179.169
0.352,26.509,1.727,1.727,220.663,195.885,179.168
0.354,26.518,1.728,1.728,220.671,195.890,179.166
0.355,26.527,1.728,1.728,220.677,195.895,179.164
0.357,26.535,1.726,1.726,220.683,195.901,179.162
0.358,26.544,1.724,1.724,220.689,195.907,179.160
0.360,26.553,1.723,1.723,220.696,195.913,179.159
0.361,26.565,1.722,1.722,220.705,195.920,179.158
0.363,26.579,1.724,1.724,220.717,195.928,179.158
0.364,26.596,1.728,1.728,220.732,195.937,179.159
0.366,26.618,1.735,1.735,220.751,195.947,179.162
0.367,26.644,1.743,1.743,220.774,195.958,179.167
0.369,26.677,1.753,1.753,220.804,195.971,179.172
0.370,26.715,1.761,1.761,220.839,195.986,179.176
0.372,26.759,1.769,1.769,220.880,196.002,179.179
0.373,26.810,1.774,1.774,220.927,196.021,179.178
0.375,26.869,1.775,1.775,220.981,196.042,179.173
0.376,26.935,1.774,1.774,221.043,196.065,179.161
0.378,27.012,1.769,1.769,221.111,196.092,179.142
0.379,27.098,1.762,1.762,221.188,196.122,179.114
0.381,27.197,1.754,1.754,221.273,196.155,179.076
0.382,27.308,1.745,1.745,221.365,196.192,179.028
0.384,27.428,1.735,1.735,221.463,196.233,178.972
0.385,27.555,1.726,1.726,221.564,196.279,178.910
0.387,27.686,1.717,1.717,221.666,196.330,178.845
0.388,27.820,1.710,1.710,221.768,196.387,178.779
0.390,27.954,1.704,1.704,221.866,196.450,178.714
0.391,28.086,1.702,1.702,221.959,196.521,178.652
0.393,28.214,1.703,1.703,222.044,196.599,178.596
0.394,28.338,1.708,1.708,222.120,196.685,178.549
0.396,28.458,1.717,1.717,222.185,196.779,178.511
0.397,28.577,1.727,1.727,222.241,196.879,178.483
0.399,28.694,1.735,1.735,222.293,196.982,178.461
0.400,28.811,1.739,1.739,222.344,197.086,178.445
0.402,28.926,1.734,1.734,222.397,197.187,178.433
0.403,29.039,1.720,1.720,222.457,197.283,178.423
0.405,29.152,1.691,1.691,222.527,197.371,178.414
0.406,29.266,1.652,1.652,222.610,197.448,178.403
0.408,29.386,1.606,1.606,222.711,197.512,178.390
0.409,29.518,1.561,1.561,222.833,197.559,178.372
0.411,29.664,1.521,1.521,222.974,197.590,178.350
0.412,29.822,1.494,1.494,223.129,197.608,178.326
0.414,29.987,1.485,1.485,223.293,197.614,178.303
0.415,30.154,1.499,1.499,223.458,197.612,178.282
0.417,30.318,1.533,1.533,223.621,197.603,178.267
0.418,30.473,1.582,1.582,223.775,197.590,178.258
0.420,30.613,1.640,1.640,223.915,197.576,178.260
0.421,30.734,1.701,1.701,224.034,197.564,178.273
0.423,30.832,1.758,1.758,224.128,197.555,178.300
0.424,30.910,1.806,1.806,224.194,197.551,178.342
0.426,30.976,1.840,1.840,224.236,197.555,178.392
0.427,31.037,1.859,1.859,224.261,197.566,178.446
0.429,31.094,1.863,1.863,224.274,197.586,178.498
0.430,31.147,1.853,1.853,224.281,197.615,178.542
0.432,31.197,1.830,1.830,224.289,197.655,178.572
0.433,31.251,1.793,1.793,224.302,197.706,178.582
0.435,31.321,1.743,1.743,224.328,197.769,178.567
0.436,31.421,1.682,1.682,224.372,197.846,178.521
0.438,31.560,1.616,1.616,224.439,197.936,178.438
0.439,31.738,1.548,1.548,224.528,198.039,178.323
0.441,31.949,1.484,1.484,224.636,198.153,178.182
0.442,32.186,1.430,1.430,224.760,198.275,178.022
0.444,32.440,1.390,1.390,224.896,198.404,177.850
0.445,32.705,1.369,1.369,225.040,198.537,177.672
0.447,32.972,1.368,1.368,225.189,198.673,177.496
0.448,33.235,1.385,1.385,225.339,198.810,177.329
0.450,33.486,1.416,1.416,225.487,198.945,177.178
0.451,33.719,1.459,1.459,225.629,199.077,177.049
0.453,33.930,1.510,1.510,225.763,199.202,176.945
0.454,34.120,1.568,1.568,225.887,199.319,176.861
0.456,34.287,1.629,1.629,226.001,199.422,176.795
0.457,34.433,1.688,1.688,226.102,199.510,176.740
0.459,34.554,1.743,1.743,226.191,199.579,176.692
0.460,34.652,1.788,1.788,226.266,199.625,176.648
0.462,34.730,1.819,1.819,226.325,199.645,176.603
0.463,34.797,1.832,1.832,226.369,199.636,176.553
0.465,34.874,1.823,1.823,226.394,199.595,176.492
0.466,34.980,1.790,1.790,226.402,199.519,176.419
0.468,35.118,1.737,1.737,226.396,199.413,176.332
0.469,35.282,1.670,1.670,226.379,199.281,176.235
0.471,35.469,1.596,1.596,226.356,199.129,176.129
0.472,35.673,1.522,1.522,226.332,198.961,176.015
0.474,35.888,1.452,1.452,226.310,198.784,175.895
0.475,36.109,1.393,1.393,226.296,198.602,175.771
0.477,36.331,1.348,1.348,226.292,198.420,175.645
0.478,36.548,1.316,1.316,226.303,198.243,175.518
0.480,36.759,1.295,1.295,226.334,198.077,175.392
0.481,36.961,1.284,1.284,226.384,197.924,175.269
0.483,37.155,1.279,1.279,226.453,197.785,175.153
0.484,37.340,1.280,1.280,226.536,197.659,175.046
0.486,37.515,1.284,1.284,226.633,197.548,174.952
0.487,37.680,1.292,1.292,226.741,197.451,174.872
0.489,37.835,1.304,1.304,226.857,197.370,174.811
0.490,37.980,1.320,1.320,226.979,197.304,174.771
0.492,38.117,1.342,1.342,227.106,197.254,174.754
0.493,38.250,1.369,1.369,227.234,197.220,174.765
0.495,38.385,1.402,1.402,227.362,197.203,174.802
0.496,38.523,1.442,1.442,227.490,197.199,174.856
0.498,38.664,1.484,1.484,227.617,197.208,174.917
0.499,38.804,1.523,1.523,227.742,197.226,174.976
0.501,38.938,1.553,1.553,227.866,197.252,175.023
0.502,39.066,1.569,1.569,227.987,197.283,175.046
0.504,39.189,1.565,1.565,228.105,197.317,175.038
0.505,39.320,1.536,1.536,228.221,197.352,174.986
0.507,39.476,1.480,1.480,228.332,197.385,174.883
0.508,39.675,1.405,1.405,228.440,197.416,174.719
0.510,39.919,1.321,1.321,228.545,197.444,174.500
0.511,40.200,1.237,1.237,228.646,197.470,174.239
0.513,40.508,1.162,1.162,228.744,197.496,173.948
0.514,40.832,1.106,1.106,228.839,197.523,173.640
0.516,41.161,1.079,1.079,228.933,197.553,173.326
0.517,41.484,1.083,1.083,229.025,197.586,173.019
0.519,41.788,1.112,1.112,229.116,197.625,172.731
0.520,42.064,1.158,1.158,229.206,197.670,172.474
0.522,42.301,1.216,1.216,229.296,197.723,172.261
0.523,42.497,1.277,1.277,229.384,197.783,172.096
0.525,42.660,1.336,1.336,229.470,197.849,171.975
0.526,42.795,1.384,1.384,229.550,197.919,171.890
0.528,42.910,1.421,1.421,229.622,197.991,171.838
0.529,43.008,1.445,1.445,229.683,198.063,171.811
0.531,43.094,1.459,1.459,229.733,198.132,171.805
0.532,43.168,1.461,1.461,229.767,198.198,171.814
0.534,43.233,1.452,1.452,229.785,198.258,171.832
0.535,43.289,1.433,1.433,229.784,198.309,171.854
0.537,43.341,1.404,1.404,229.763,198.352,171.874
0.538,43.391,1.369,1.369,229.729,198.385,171.891
0.540,43.439,1.332,1.332,229.690,198.411,171.902
0.541,43.479,1.298,1.298,229.656,198.430,171.908
0.543,43.504,1.271,1.271,229.634,198.443,171.906
0.544,43.518,1.255,1.255,229.634,198.452,171.895
0.546,43.554,1.256,1.256,229.663,198.457,171.874
0.547,43.630,1.275,1.275,229.731,198.459,171.840
0.549,43.753,1.311,1.311,229.845,198.459,171.794
0.550,43.932,1.364,1.364,230.013,198.459,171.733
0.552,44.164,1.431,1.431,230.233,198.459,171.659
0.553,44.438,1.511,1.511,230.493,198.459,171.572
0.555,44.743,1.603,1.603,230.783,198.459,171.476
0.556,45.069,1.705,1.705,231.091,198.461,171.373
0.558,45.403,1.815,1.815,231.407,198.463,171.263
0.559,45.735,1.930,1.930,231.719,198.467,171.150
0.561,46.053,2.045,2.045,232.016,198.473,171.035
0.562,46.348,2.158,2.158,232.288,198.480,170.921
0.564,46.609,2.266,2.266,232.523,198.490,170.809
0.565,46.829,2.365,2.365,232.715,198.502,170.701
0.567,47.013,2.453,2.453,232.867,198.517,170.599
0.568,47.165,2.527,2.527,232.983,198.532,170.502
0.570,47.290,2.589,2.589,233.069,198.548,170.413
0.571,47.392,2.638,2.638,233.128,198.564,170.331
0.573,47.475,2.674,2.674,233.165,198.579,170.258
0.574,47.543,2.698,2.698,233.184,198.593,170.195
0.576,47.597,2.710,2.710,233.190,198.605,170.142
0.577,47.639,2.710,2.710,233.186,198.614,170.101
0.579,47.670,2.701,2.701,233.179,198.620,170.071
0.580,47.691,2.686,2.686,233.169,198.624,170.053
0.582,47.705,2.668,2.668,233.158,198.626,170.044
0.583,47.715,2.651,2.651,233.148,198.625,170.043
0.585,47.723,2.636,2.636,233.142,198.624,170.048
0.586,47.733,2.627,2.627,233.139,198.622,170.057
0.588,47.745,2.626,2.626,233.143,198.621,170.068
0.589,47.761,2.631,2.631,233.154,198.619,170.080
0.591,47.785,2.640,2.640,233.175,198.619,170.091
0.592,47.818,2.650,2.650,233.207,198.621,170.099
0.594,47.861,2.660,2.660,233.250,198.624,170.104
0.595,47.914,2.667,2.667,233.302,198.629,170.105
0.597,47.974,2.670,2.670,233.362,198.633,170.103
0.598,48.041,2.667,2.667,233.429,198.637,170.098
0.600,48.113,2.662,2.662,233.500,198.639,170.090
0.601,48.187,2.657,2.657,233.573,198.640,170.079
0.603,48.262,2.653,2.653,233.648,198.637,170.066
0.604,48.338,2.653,2.653,233.721,198.631,170.051
0.606,48.412,2.658,2.658,233.793,198.620,170.033
0.607,48.484,2.672,2.672,233.860,198.605,170.014
0.609,48.555,2.691,2.691,233.925,198.584,169.994
0.610,48.625,2.710,2.710,233.987,198.560,169.972
