"T","Distance","Radius","FreeRadius","X","Y","Z"
0.000,0.000,1.264,1.264,185.684,226.365,217.866
0.001,0.066,1.299,1.299,185.647,226.358,217.919
0.003,0.132,1.333,1.333,185.609,226.350,217.973
0.004,0.197,1.367,1.367,185.573,226.344,218.026
0.005,0.260,1.401,1.401,185.537,226.338,218.078
0.007,0.321,1.435,1.435,185.503,226.334,218.129
0.008,0.381,1.468,1.468,185.471,226.332,218.179
0.009,0.437,1.501,1.501,185.441,226.332,218.227
0.010,0.491,1.533,1.533,185.414,226.335,218.273
0.012,0.541,1.565,1.565,185.390,226.341,218.317
0.013,0.589,1.595,1.596,185.370,226.351,218.359
0.014,0.633,1.625,1.625,185.353,226.364,218.398
0.016,0.675,1.653,1.654,185.340,226.381,218.434
0.017,0.715,1.680,1.681,185.331,226.401,218.467
0.018,0.753,1.706,1.707,185.324,226.424,218.497
0.020,0.790,1.731,1.731,185.321,226.448,218.524
0.021,0.825,1.753,1.753,185.319,226.473,218.549
0.022,0.858,1.774,1.773,185.320,226.497,218.571
0.024,0.888,1.793,1.791,185.321,226.521,218.590
0.025,0.916,1.809,1.806,185.324,226.543,218.606
0.026,0.940,1.823,1.819,185.328,226.563,218.620
0.028,0.960,1.834,1.830,185.331,226.579,218.631
0.029,0.975,1.841,1.839,185.334,226.591,218.640
0.030,0.986,1.845,1.845,185.337,226.598,218.647
0.031,0.995,1.846,1.848,185.341,226.603,218.654
0.033,1.006,1.843,1.849,185.347,226.603,218.663
0.034,1.021,1.838,1.848,185.356,226.602,218.675
0.035,1.043,1.831,1.844,185.368,226.598,218.693
0.037,1.074,1.824,1.837,185.386,226.593,218.718
0.038,1.115,1.816,1.828,185.408,226.586,218.752
0.039,1.169,1.809,1.816,185.438,226.579,218.797
0.041,1.237,1.804,1.802,185.475,226.573,218.854
0.042,1.322,1.800,1.785,185.520,226.566,218.925
0.043,1.424,1.797,1.769,185.575,226.561,219.011
0.045,1.543,1.795,1.755,185.638,226.556,219.112
0.046,1.675,1.793,1.745,185.709,226.551,219.223
0.047,1.818,1.790,1.742,185.785,226.545,219.343
0.049,1.968,1.785,1.747,185.867,226.538,219.469
0.050,2.122,1.779,1.762,185.953,226.528,219.597
0.051,2.279,1.769,1.790,186.040,226.514,219.726
0.052,2.434,1.757,1.830,186.130,226.497,219.851
0.054,2.585,1.743,1.876,186.219,226.474,219.971
0.055,2.729,1.729,1.925,186.307,226.446,220.083
0.056,2.865,1.715,1.973,186.392,226.412,220.183
0.058,2.992,1.703,2.014,186.474,226.371,220.269
0.059,3.111,1.693,2.045,186.554,226.322,220.343
0.060,3.225,1.686,2.061,186.632,226.265,220.404
0.062,3.338,1.684,2.059,186.710,226.199,220.454
0.063,3.453,1.684,2.039,186.788,226.125,220.492
0.064,3.571,1.686,2.003,186.868,226.042,220.519
0.066,3.696,1.685,1.955,186.950,225.949,220.537
0.067,3.830,1.682,1.897,187.036,225.846,220.546
0.068,3.975,1.672,1.832,187.125,225.733,220.546
0.070,4.132,1.654,1.762,187.221,225.608,220.539
0.071,4.302,1.625,1.690,187.322,225.473,220.524
0.072,4.486,1.586,1.619,187.431,225.326,220.503
0.073,4.680,1.539,1.550,187.543,225.170,220.476
0.075,4.882,1.488,1.486,187.659,225.007,220.446
0.076,5.091,1.436,1.429,187.777,224.839,220.412
0.077,5.302,1.389,1.380,187.894,224.666,220.376
0.079,5.515,1.349,1.343,188.009,224.491,220.339
0.080,5.726,1.320,1.318,188.121,224.316,220.302
0.081,5.932,1.307,1.309,188.228,224.143,220.266
0.083,6.132,1.310,1.314,188.327,223.973,220.232
0.084,6.323,1.327,1.331,188.418,223.808,220.201
0.085,6.503,1.355,1.359,188.499,223.650,220.174
0.087,6.671,1.391,1.394,188.570,223.500,220.151
0.088,6.828,1.431,1.434,188.634,223.358,220.131
0.089,6.974,1.474,1.476,188.693,223.225,220.111
0.091,7.111,1.517,1.517,188.749,223.102,220.092
0.092,7.239,1.556,1.556,188.805,222.988,220.071
0.093,7.359,1.592,1.591,188.863,222.886,220.048
0.094,7.473,1.624,1.622,188.924,222.794,220.021
0.096,7.582,1.651,1.650,188.992,222.714,219.988
0.097,7.692,1.676,1.675,189.069,222.647,219.949
0.098,7.805,1.696,1.696,189.156,222.592,219.903
0.100,7.927,1.714,1.713,189.256,222.550,219.847
0.101,8.058,1.728,1.728,189.367,222.520,219.784
0.102,8.197,1.739,1.739,189.487,222.502,219.715
0.104,8.342,1.748,1.748,189.611,222.493,219.642
0.105,8.490,1.756,1.756,189.739,222.492,219.567
0.106,8.638,1.763,1.764,189.866,222.499,219.493
0.108,8.782,1.772,1.772,189.991,222.511,219.420
0.109,8.921,1.782,1.782,190.110,222.528,219.351
0.110,9.050,1.794,1.794,190.220,222.548,219.287
0.112,9.166,1.810,1.810,190.320,222.570,219.231
0.113,9.266,1.830,1.830,190.405,222.593,219.185
0.114,9.347,1.852,1.852,190.475,222.616,219.149
0.115,9.412,1.875,1.875,190.530,222.638,219.123
0.117,9.464,1.897,1.897,190.574,222.659,219.106
0.118,9.505,1.918,1.918,190.608,222.679,219.095
0.119,9.537,1.936,1.936,190.634,222.698,219.091
0.121,9.564,1.950,1.950,190.654,222.715,219.091
0.122,9.587,1.958,1.958,190.671,222.731,219.095
0.123,9.609,1.961,1.961,190.686,222.745,219.101
0.125,9.630,1.960,1.960,190.701,222.757,219.108
0.126,9.651,1.956,1.956,190.719,222.767,219.115
0.127,9.675,1.952,1.952,190.741,222.775,219.120
0.129,9.703,1.948,1.948,190.768,222.780,219.123
0.130,9.732,1.947,1.947,190.797,222.784,219.124
0.131,9.762,1.949,1.949,190.827,222.786,219.123
0.133,9.790,1.956,1.956,190.855,222.788,219.120
0.134,9.815,1.967,1.967,190.879,222.790,219.115
0.135,9.834,1.980,1.980,190.896,222.792,219.108
0.136,9.846,1.995,1.995,190.905,222.796,219.100
0.138,9.858,2.008,2.008,190.903,222.801,219.089
0.139,9.879,2.020,2.020,190.888,222.808,219.077
0.140,9.914,2.028,2.028,190.857,222.818,219.064
0.142,9.965,2.031,2.031,190.810,222.832,219.049
0.143,10.030,2.029,2.029,190.749,222.848,219.033
0.144,10.099,2.023,2.023,190.684,222.866,219.017
0.146,10.165,2.014,2.014,190.623,222.885,219.003
0.147,10.220,2.005,2.005,190.573,222.903,218.990
0.148,10.256,1.996,1.996,190.542,222.921,218.980
0.150,10.272,1.989,1.989,190.540,222.936,218.975
0.151,10.308,1.987,1.987,190.574,222.948,218.974
0.152,10.386,1.990,1.990,190.652,222.955,218.978
0.154,10.517,2.000,2.000,190.782,222.957,218.990
0.155,10.709,2.017,2.017,190.973,222.953,219.009
0.156,10.967,2.042,2.042,191.229,222.942,219.036
0.157,11.282,2.076,2.076,191.542,222.925,219.071
0.159,11.642,2.120,2.120,191.898,222.903,219.111
0.160,12.031,2.173,2.173,192.285,222.878,219.155
0.161,12.438,2.237,2.237,192.688,222.852,219.202
0.163,12.849,2.312,2.312,193.096,222.826,219.249
0.164,13.250,2.395,2.395,193.493,222.802,219.296
0.165,13.629,2.483,2.483,193.868,222.780,219.340
0.167,13.970,2.571,2.571,194.208,222.764,219.380
0.168,14.263,2.657,2.657,194.497,222.753,219.415
0.169,14.492,2.736,2.736,194.725,222.750,219.442
0.171,14.652,2.805,2.805,194.884,222.755,219.462
0.172,14.751,2.860,2.860,194.982,222.765,219.475
0.173,14.800,2.899,2.899,195.028,222.778,219.482
0.175,14.814,2.923,2.923,195.033,222.791,219.485
0.176,14.843,2.936,2.936,195.006,222.801,219.484
0.177,14.892,2.940,2.940,194.957,222.805,219.481
0.178,14.954,2.937,2.937,194.896,222.801,219.477
0.180,15.020,2.930,2.930,194.831,222.785,219.474
0.181,15.085,2.922,2.922,194.774,222.755,219.472
0.182,15.147,2.915,2.915,194.733,222.709,219.473
0.184,15.215,2.910,2.910,194.718,222.643,219.478
0.185,15.302,2.907,2.907,194.733,222.557,219.487
0.186,15.411,2.906,2.906,194.771,222.456,219.500
0.188,15.540,2.906,2.906,194.829,222.342,219.516
0.189,15.683,2.908,2.908,194.902,222.220,219.535
0.190,15.836,2.910,2.910,194.985,222.093,219.556
0.192,15.993,2.914,2.914,195.072,221.965,219.579
0.193,16.149,2.917,2.917,195.160,221.838,219.603
0.194,16.298,2.921,2.921,195.244,221.717,219.628
0.196,16.434,2.924,2.924,195.318,221.606,219.652
0.197,16.552,2.929,2.929,195.378,221.508,219.676
0.198,16.647,2.933,2.933,195.419,221.425,219.699
0.199,16.721,2.938,2.938,195.443,221.359,219.721
0.201,16.778,2.943,2.943,195.453,221.307,219.742
0.202,16.822,2.948,2.948,195.451,221.267,219.760
0.203,16.856,2.954,2.954,195.442,221.238,219.777
0.205,16.885,2.959,2.959,195.428,221.217,219.792
0.206,16.909,2.963,2.963,195.413,221.204,219.804
0.207,16.927,2.965,2.965,195.400,221.195,219.814
0.209,16.939,2.965,2.965,195.392,221.190,219.821
0.210,16.945,2.962,2.962,195.394,221.186,219.825
0.211,16.959,2.955,2.955,195.407,221.182,219.826
0.213,16.987,2.944,2.944,195.434,221.175,219.825
0.214,17.028,2.928,2.928,195.474,221.166,219.822
0.215,17.077,2.907,2.907,195.522,221.153,219.823
0.217,17.134,2.882,2.882,195.575,221.136,219.829
0.218,17.195,2.852,2.852,195.631,221.115,219.843
0.219,17.261,2.818,2.818,195.685,221.087,219.868
0.220,17.333,2.779,2.779,195.736,221.054,219.908
0.222,17.414,2.735,2.735,195.778,221.015,219.964
0.223,17.510,2.688,2.688,195.810,220.967,220.041
0.224,17.625,2.637,2.637,195.827,220.912,220.140
0.226,17.765,2.584,2.584,195.827,220.849,220.265
0.227,17.933,2.531,2.531,195.809,220.777,220.416
0.228,18.125,2.478,2.478,195.775,220.698,220.588
0.230,18.335,2.428,2.428,195.732,220.615,220.776
0.231,18.557,2.381,2.381,195.681,220.528,220.974
0.232,18.785,2.340,2.340,195.628,220.439,221.177
0.234,19.012,2.304,2.304,195.576,220.351,221.380
0.235,19.233,2.275,2.275,195.529,220.264,221.577
0.236,19.440,2.251,2.251,195.491,220.181,221.763
0.238,19.628,2.231,2.231,195.467,220.104,221.932
0.239,19.791,2.216,2.216,195.460,220.033,222.080
0.240,19.928,2.205,2.205,195.474,219.971,222.201
0.241,20.042,2.196,2.196,195.509,219.917,222.295
0.243,20.143,2.191,2.191,195.562,219.868,222.365
0.244,20.239,2.187,2.187,195.628,219.820,222.416
0.245,20.337,2.184,2.184,195.705,219.771,222.452
0.247,20.440,2.182,2.182,195.788,219.716,222.476
0.248,20.548,2.178,2.178,195.875,219.654,222.493
0.249,20.662,2.174,2.174,195.961,219.581,222.506
0.251,20.783,2.167,2.167,196.044,219.493,222.520
0.252,20.913,2.156,2.156,196.119,219.388,222.537
0.253,21.056,2.142,2.142,196.182,219.263,222.564
0.255,21.218,2.124,2.124,196.232,219.114,222.602
0.256,21.399,2.106,2.106,196.269,218.944,222.653
0.257,21.598,2.088,2.088,196.295,218.757,222.715
0.259,21.812,2.073,2.073,196.313,218.556,222.789
0.260,22.039,2.064,2.064,196.326,218.347,222.874
0.261,22.274,2.061,2.061,196.337,218.131,222.968
0.262,22.515,2.068,2.068,196.349,217.914,223.072
0.264,22.758,2.086,2.086,196.363,217.699,223.184
0.265,23.000,2.116,2.116,196.382,217.490,223.305
0.266,23.239,2.156,2.156,196.411,217.291,223.433
0.268,23.471,2.206,2.206,196.450,217.106,223.568
0.269,23.696,2.266,2.266,196.502,216.938,223.708
0.270,23.914,2.335,2.335,196.565,216.787,223.852
0.272,24.125,2.414,2.414,196.636,216.652,223.998
0.273,24.328,2.500,2.500,196.714,216.533,224.142
0.274,24.521,2.594,2.594,196.796,216.429,224.283
0.276,24.703,2.691,2.691,196.881,216.341,224.418
0.277,24.872,2.789,2.789,196.964,216.267,224.545
0.278,25.026,2.884,2.884,197.046,216.207,224.661
0.280,25.162,2.972,2.972,197.122,216.160,224.764
0.281,25.279,3.050,3.050,197.191,216.127,224.852
0.282,25.373,3.115,3.115,197.251,216.106,224.922
0.283,25.446,3.162,3.162,197.301,216.096,224.974
0.285,25.503,3.193,3.193,197.341,216.096,225.013
0.286,25.548,3.211,3.211,197.375,216.103,225.042
0.287,25.586,3.219,3.219,197.404,216.115,225.064
0.289,25.622,3.222,3.222,197.429,216.131,225.085
0.290,25.659,3.223,3.223,197.453,216.148,225.107
0.291,25.699,3.227,3.227,197.475,216.164,225.136
0.293,25.746,3.238,3.238,197.500,216.177,225.174
0.294,25.805,3.258,3.258,197.527,216.186,225.225
0.295,25.882,3.288,3.288,197.560,216.187,225.295
0.297,25.981,3.328,3.328,197.599,216.180,225.386
0.298,26.102,3.375,3.375,197.644,216.164,225.497
0.299,26.242,3.430,3.430,197.695,216.143,225.626
0.301,26.398,3.491,3.491,197.752,216.119,225.769
0.302,26.564,3.556,3.556,197.812,216.094,225.921
0.303,26.737,3.625,3.625,197.877,216.071,226.080
0.304,26.913,3.697,3.697,197.944,216.053,226.243
0.306,27.089,3.771,3.771,198.013,216.043,226.404
0.307,27.261,3.846,3.846,198.083,216.042,226.561
0.308,27.427,3.921,3.921,198.154,216.053,226.710
0.310,27.584,3.996,3.996,198.224,216.079,226.848
0.311,27.732,4.069,4.069,198.294,216.122,226.971
0.312,27.873,4.140,4.140,198.362,216.181,227.080
0.314,28.010,4.208,4.208,198.429,216.252,227.176
0.315,28.144,4.273,4.273,198.495,216.332,227.260
0.316,28.275,4.333,4.333,198.560,216.420,227.334
0.318,28.405,4.389,4.389,198.624,216.513,227.398
0.319,28.531,4.438,4.438,198.687,216.607,227.454
0.320,28.654,4.482,4.482,198.749,216.700,227.504
0.322,28.771,4.518,4.518,198.810,216.789,227.548
0.323,28.881,4.548,4.548,198.871,216.872,227.588
0.324,28.983,4.569,4.569,198.930,216.946,227.625
0.325,29.076,4.582,4.582,198.989,217.009,227.661
0.327,29.161,4.590,4.590,199.047,217.062,227.694
0.328,29.241,4.592,4.592,199.106,217.106,227.725
0.329,29.316,4.591,4.591,199.164,217.143,227.753
0.331,29.388,4.588,4.588,199.224,217.174,227.779
0.332,29.457,4.583,4.583,199.284,217.201,227.803
0.333,29.526,4.579,4.579,199.345,217.225,227.823
0.335,29.595,4.575,4.575,199.408,217.246,227.840
0.336,29.665,4.573,4.573,199.473,217.268,227.853
0.337,29.736,4.571,4.571,199.540,217.290,227.863
0.339,29.810,4.570,4.570,199.610,217.314,227.869
0.340,29.889,4.570,4.570,199.683,217.342,227.872
0.341,29.973,4.569,4.569,199.762,217.372,227.873
0.343,30.065,4.568,4.568,199.848,217.406,227.875
0.344,30.166,4.566,4.566,199.942,217.442,227.878
0.345,30.279,4.564,4.564,200.048,217.480,227.884
0.346,30.404,4.564,4.564,200.166,217.522,227.895
0.348,30.544,4.569,4.569,200.298,217.565,227.912
0.349,30.701,4.581,4.581,200.446,217.611,227.937
0.350,30.877,4.603,4.603,200.611,217.660,227.972
0.352,31.075,4.636,4.636,200.797,217.710,228.019
0.353,31.296,4.684,4.684,201.003,217.763,228.078
0.354,31.538,4.748,4.748,201.228,217.817,228.149
0.356,31.794,4.827,4.827,201.465,217.872,228.229
0.357,32.061,4.917,4.917,201.711,217.928,228.315
0.358,32.330,5.013,5.013,201.959,217.984,228.406
0.360,32.598,5.111,5.111,202.204,218.038,228.498
0.361,32.857,5.206,5.206,202.441,218.092,228.589
0.362,33.103,5.294,5.294,202.664,218.143,228.677
0.364,33.329,5.371,5.371,202.869,218.192,228.759
0.365,33.530,5.433,5.433,203.050,218.237,228.832
0.366,33.699,5.480,5.480,203.202,218.279,228.895
0.367,33.833,5.514,5.514,203.321,218.316,228.944
0.369,33.934,5.538,5.538,203.409,218.349,228.982
0.370,34.007,5.552,5.552,203.470,218.378,229.008
0.371,34.056,5.560,5.560,203.508,218.404,229.026
0.373,34.086,5.562,5.562,203.526,218.426,229.036
0.374,34.105,5.561,5.561,203.528,218.445,229.039
0.375,34.124,5.558,5.558,203.518,218.461,229.038
0.377,34.147,5.554,5.554,203.501,218.475,229.034
0.378,34.173,5.549,5.549,203.479,218.487,229.028
0.379,34.198,5.544,5.544,203.457,218.497,229.022
0.381,34.219,5.539,5.539,203.438,218.505,229.017
0.382,34.234,5.536,5.536,203.425,218.512,229.015
0.383,34.244,5.534,5.534,203.417,218.518,229.014
0.385,34.250,5.534,5.534,203.415,218.524,229.015
0.386,34.255,5.536,5.536,203.416,218.528,229.018
0.387,34.263,5.540,5.539,203.421,218.533,229.022
0.388,34.273,5.544,5.543,203.428,218.538,229.026
0.390,34.284,5.547,5.547,203.438,218.543,229.030
0.391,34.297,5.550,5.550,203.449,218.549,229.035
0.392,34.311,5.551,5.551,203.460,218.556,229.039
0.394,34.326,5.549,5.549,203.471,218.564,229.042
0.395,34.340,5.544,5.545,203.482,218.574,229.044
0.396,34.354,5.537,5.537,203.491,218.585,229.045
0.398,34.368,5.529,5.529,203.498,218.596,229.045
0.399,34.380,5.521,5.521,203.504,218.606,229.044
0.400,34.390,5.514,5.515,203.509,218.615,229.042
0.402,34.397,5.510,5.511,203.511,218.622,229.041
0.403,34.401,5.511,5.511,203.512,218.625,229.039
0.404,34.403,5.517,5.517,203.510,218.623,229.037
0.406,34.411,5.529,5.529,203.506,218.617,229.036
0.407,34.426,5.545,5.544,203.499,218.604,229.036
0.408,34.448,5.563,5.561,203.490,218.584,229.036
0.409,34.478,5.579,5.577,203.478,218.556,229.037
0.411,34.512,5.592,5.590,203.466,218.524,229.040
0.412,34.544,5.600,5.597,203.456,218.494,229.044
0.413,34.568,5.598,5.597,203.453,218.471,229.049
0.415,34.582,5.586,5.587,203.459,218.461,229.057
0.416,34.604,5.562,5.565,203.477,218.470,229.066
0.417,34.652,5.527,5.534,203.511,218.502,229.077
0.419,34.736,5.484,5.492,203.564,218.565,229.090
0.420,34.860,5.432,5.442,203.640,218.663,229.105
0.421,35.033,5.374,5.384,203.740,218.803,229.123
0.423,35.261,5.311,5.318,203.869,218.989,229.143
0.424,35.546,5.244,5.246,204.029,219.225,229.166
0.425,35.882,5.175,5.168,204.213,219.504,229.193
0.427,36.256,5.104,5.087,204.417,219.816,229.225
0.428,36.657,5.033,5.006,204.634,220.152,229.262
0.429,37.075,4.962,4.927,204.858,220.502,229.305
0.430,37.498,4.893,4.855,205.082,220.857,229.356
0.432,37.916,4.826,4.792,205.300,221.208,229.415
0.433,38.317,4.763,4.740,205.507,221.545,229.483
0.434,38.691,4.704,4.705,205.696,221.859,229.561
0.436,39.029,4.650,4.686,205.860,222.140,229.650
0.437,39.321,4.603,4.683,205.994,222.379,229.751
0.438,39.566,4.564,4.691,206.096,222.572,229.864
0.440,39.772,4.533,4.707,206.167,222.722,229.985
0.441,39.949,4.511,4.729,206.213,222.835,230.112
0.442,40.104,4.500,4.751,206.238,222.916,230.243
0.444,40.245,4.500,4.772,206.246,222.969,230.373
0.445,40.377,4.512,4.787,206.240,223.001,230.501
0.446,40.500,4.536,4.795,206.226,223.014,230.622
0.448,40.615,4.569,4.798,206.206,223.016,230.735
0.449,40.719,4.609,4.797,206.185,223.010,230.837
0.450,40.808,4.651,4.792,206.168,223.002,230.924
0.451,40.879,4.693,4.787,206.157,222.996,230.994
0.453,40.931,4.733,4.781,206.155,222.994,231.046
0.454,40.968,4.766,4.777,206.158,222.996,231.083
0.455,40.994,4.790,4.776,206.166,223.001,231.107
0.457,41.012,4.806,4.777,206.177,223.009,231.120
0.458,41.027,4.813,4.780,206.188,223.018,231.123
0.459,41.042,4.813,4.783,206.199,223.028,231.120
0.461,41.057,4.808,4.785,206.206,223.038,231.111
0.462,41.072,4.799,4.784,206.209,223.048,231.100
0.463,41.087,4.787,4.781,206.206,223.057,231.089
0.465,41.104,4.773,4.773,206.194,223.064,231.079
0.466,41.127,4.758,4.759,206.173,223.069,231.072
0.467,41.155,4.742,4.740,206.146,223.074,231.069
0.469,41.187,4.724,4.717,206.115,223.082,231.072
0.470,41.221,4.702,4.690,206.085,223.095,231.081
0.471,41.258,4.677,4.662,206.060,223.118,231.095
0.472,41.302,4.647,4.632,206.045,223.153,231.117
0.474,41.360,4.611,4.602,206.043,223.204,231.147
0.475,41.440,4.569,4.573,206.058,223.272,231.184
0.476,41.547,4.520,4.544,206.094,223.362,231.231
0.478,41.688,4.466,4.516,206.155,223.476,231.287
0.479,41.869,4.410,4.489,206.246,223.617,231.354
0.480,42.092,4.353,4.460,206.368,223.788,231.431
0.482,42.351,4.299,4.430,206.515,223.982,231.517
0.483,42.637,4.248,4.399,206.681,224.194,231.612
0.484,42.943,4.203,4.365,206.861,224.420,231.715
0.486,43.260,4.167,4.328,207.046,224.654,231.823
0.487,43.580,4.139,4.289,207.231,224.889,231.937
0.488,43.895,4.118,4.249,207.408,225.121,232.055
0.490,44.197,4.103,4.209,207.572,225.344,232.175
0.491,44.478,4.093,4.171,207.716,225.552,232.298
0.492,44.732,4.087,4.137,207.834,225.740,232.421
0.493,44.953,4.084,4.107,207.918,225.903,232.544
0.495,45.141,4.081,4.084,207.967,226.038,232.665
0.496,45.303,4.079,4.068,207.988,226.149,232.782
0.497,45.447,4.077,4.060,207.987,226.238,232.895
0.499,45.575,4.076,4.057,207.970,226.308,233.001
0.500,45.691,4.075,4.059,207.944,226.364,233.098
0.501,45.793,4.075,4.064,207.915,226.407,233.186
0.503,45.880,4.076,4.070,207.889,226.442,233.262
0.504,45.951,4.079,4.078,207.873,226.471,233.325
0.505,46.005,4.084,4.084,207.873,226.497,233.372
0.507,46.053,4.091,4.089,207.896,226.525,233.403
0.508,46.114,4.100,4.094,207.948,226.556,233.416
0.509,46.202,4.109,4.098,208.028,226.591,233.412
0.510,46.315,4.117,4.102,208.132,226.630,233.394
0.512,46.448,4.125,4.108,208.255,226.671,233.364
0.513,46.597,4.131,4.116,208.393,226.715,233.326
0.514,46.757,4.134,4.127,208.540,226.758,233.283
0.516,46.922,4.135,4.142,208.693,226.802,233.236
0.517,47.087,4.132,4.160,208.845,226.845,233.190
0.518,47.247,4.127,4.182,208.994,226.885,233.147
0.520,47.396,4.122,4.205,209.134,226.922,233.110
0.521,47.529,4.118,4.230,209.259,226.956,233.082
0.522,47.643,4.117,4.255,209.368,226.984,233.064
0.524,47.737,4.120,4.281,209.459,227.010,233.057
0.525,47.815,4.127,4.305,209.533,227.034,233.058
0.526,47.880,4.141,4.327,209.592,227.058,233.065
0.528,47.933,4.160,4.347,209.637,227.085,233.077
0.529,47.980,4.181,4.361,209.670,227.115,233.090
0.530,48.024,4.201,4.370,209.691,227.152,233.103
0.531,48.071,4.217,4.370,209.701,227.196,233.115
0.533,48.126,4.228,4.362,209.703,227.251,233.122
0.534,48.192,4.229,4.342,209.697,227.316,233.123
0.535,48.272,4.218,4.310,209.685,227.395,233.117
