"T","Distance","Radius","FreeRadius","X","Y","Z"
0.000,0.000,1.305,1.305,223.193,230.048,186.002
0.001,0.099,1.319,1.319,223.122,230.041,185.933
0.003,0.196,1.333,1.333,223.053,230.035,185.866
0.004,0.286,1.348,1.348,222.988,230.030,185.803
0.006,0.368,1.363,1.363,222.930,230.029,185.745
0.007,0.438,1.379,1.379,222.882,230.031,185.695
0.009,0.494,1.396,1.396,222.845,230.039,185.654
0.010,0.534,1.415,1.415,222.821,230.052,185.624
0.011,0.561,1.436,1.436,222.814,230.073,185.607
0.013,0.592,1.457,1.457,222.825,230.101,185.605
0.014,0.643,1.479,1.479,222.857,230.138,185.619
0.016,0.719,1.500,1.500,222.909,230.184,185.650
0.017,0.817,1.520,1.520,222.977,230.237,185.696
0.019,0.931,1.538,1.538,223.058,230.295,185.753
0.020,1.056,1.553,1.553,223.145,230.356,185.818
0.021,1.185,1.566,1.566,223.234,230.418,185.889
0.023,1.314,1.575,1.575,223.320,230.479,185.962
0.024,1.436,1.584,1.584,223.400,230.536,186.035
0.026,1.547,1.593,1.593,223.467,230.589,186.106
0.027,1.640,1.603,1.603,223.517,230.634,186.170
0.029,1.712,1.616,1.616,223.546,230.670,186.225
0.030,1.764,1.633,1.633,223.555,230.696,186.269
0.031,1.802,1.655,1.655,223.549,230.714,186.302
0.033,1.829,1.679,1.679,223.535,230.725,186.322
0.034,1.847,1.703,1.703,223.518,230.730,186.328
0.036,1.863,1.723,1.723,223.505,230.731,186.320
0.037,1.886,1.734,1.734,223.502,230.728,186.297
0.039,1.927,1.735,1.735,223.515,230.724,186.258
0.040,1.993,1.720,1.720,223.549,230.719,186.202
0.041,2.090,1.687,1.687,223.611,230.714,186.128
0.043,2.223,1.638,1.638,223.706,230.711,186.036
0.044,2.389,1.578,1.578,223.833,230.710,185.928
0.046,2.582,1.513,1.513,223.985,230.711,185.809
0.047,2.797,1.448,1.448,224.159,230.714,185.684
0.049,3.026,1.388,1.388,224.349,230.720,185.556
0.050,3.263,1.339,1.339,224.551,230.729,185.431
0.051,3.503,1.305,1.305,224.759,230.740,185.312
0.053,3.738,1.287,1.287,224.968,230.754,185.204
0.054,3.964,1.283,1.283,225.173,230.770,185.111
0.056,4.175,1.290,1.290,225.370,230.790,185.039
0.057,4.367,1.305,1.305,225.554,230.812,184.989
0.058,4.543,1.325,1.325,225.725,230.839,184.958
0.060,4.706,1.348,1.348,225.885,230.871,184.944
0.061,4.860,1.371,1.371,226.033,230.909,184.942
0.063,5.005,1.393,1.393,226.171,230.954,184.948
0.064,5.145,1.414,1.414,226.300,231.007,184.958
0.066,5.280,1.436,1.436,226.420,231.069,184.968
0.067,5.413,1.460,1.460,226.531,231.141,184.975
0.068,5.547,1.486,1.486,226.635,231.225,184.975
0.070,5.684,1.515,1.515,226.733,231.320,184.963
0.071,5.827,1.548,1.548,226.825,231.427,184.939
0.073,5.975,1.584,1.584,226.913,231.541,184.903
0.074,6.127,1.622,1.622,227.000,231.658,184.860
0.076,6.278,1.661,1.661,227.086,231.772,184.810
0.077,6.427,1.697,1.697,227.174,231.880,184.758
0.078,6.571,1.730,1.730,227.265,231.977,184.704
0.080,6.707,1.758,1.758,227.361,232.059,184.653
0.081,6.836,1.778,1.778,227.464,232.121,184.605
0.083,6.961,1.790,1.790,227.576,232.159,184.564
0.084,7.088,1.798,1.798,227.698,232.168,184.532
0.086,7.222,1.804,1.804,227.829,232.151,184.507
0.087,7.364,1.812,1.812,227.964,232.116,184.482
0.088,7.508,1.822,1.822,228.098,232.071,184.453
0.090,7.651,1.840,1.840,228.226,232.023,184.413
0.091,7.788,1.867,1.867,228.344,231.981,184.356
0.093,7.922,1.904,1.904,228.448,231.952,184.278
0.094,8.058,1.949,1.949,228.532,231.944,184.171
0.096,8.213,1.999,1.999,228.593,231.966,184.030
0.097,8.405,2.051,2.051,228.624,232.025,183.849
0.098,8.652,2.103,2.103,228.624,232.126,183.625
0.100,8.950,2.151,2.151,228.594,232.268,183.364
0.101,9.290,2.192,2.192,228.542,232.441,183.076
0.103,9.659,2.225,2.225,228.471,232.638,182.773
0.104,10.042,2.250,2.250,228.389,232.852,182.465
0.106,10.427,2.267,2.267,228.301,233.075,182.164
0.107,10.799,2.277,2.277,228.213,233.298,181.880
0.108,11.143,2.280,2.280,228.130,233.515,181.625
0.110,11.448,2.276,2.276,228.059,233.717,181.409
0.111,11.698,2.267,2.267,228.006,233.897,181.243
0.113,11.889,2.253,2.253,227.973,234.050,181.133
0.114,12.032,2.236,2.236,227.961,234.178,181.073
0.116,12.142,2.217,2.217,227.966,234.287,181.052
0.117,12.237,2.199,2.199,227.987,234.379,181.061
0.118,12.330,2.183,2.183,228.021,234.460,181.089
0.120,12.424,2.172,2.172,228.066,234.533,181.128
0.121,12.521,2.166,2.166,228.121,234.602,181.168
0.123,12.619,2.168,2.168,228.182,234.673,181.199
0.124,12.720,2.178,2.178,228.248,234.748,181.211
0.126,12.830,2.194,2.194,228.316,234.833,181.194
0.127,12.957,2.216,2.216,228.386,234.928,181.146
0.128,13.102,2.243,2.243,228.455,235.030,181.071
0.130,13.262,2.275,2.275,228.523,235.138,180.974
0.131,13.434,2.312,2.312,228.590,235.248,180.861
0.133,13.610,2.351,2.351,228.654,235.356,180.737
0.134,13.788,2.393,2.393,228.715,235.461,180.608
0.136,13.960,2.435,2.435,228.772,235.559,180.478
0.137,14.120,2.476,2.476,228.824,235.647,180.354
0.138,14.264,2.515,2.515,228.870,235.723,180.242
0.140,14.385,2.550,2.550,228.910,235.783,180.144
0.141,14.483,2.580,2.580,228.943,235.827,180.063
0.143,14.563,2.603,2.603,228.971,235.855,179.994
0.144,14.630,2.621,2.621,228.994,235.868,179.932
0.146,14.690,2.637,2.637,229.013,235.865,179.875
0.147,14.751,2.652,2.652,229.030,235.848,179.818
0.148,14.821,2.670,2.670,229.044,235.817,179.758
0.150,14.903,2.692,2.692,229.056,235.773,179.690
0.151,15.001,2.721,2.721,229.068,235.716,179.611
0.153,15.119,2.759,2.759,229.080,235.646,179.517
0.154,15.258,2.804,2.804,229.093,235.564,179.406
0.155,15.415,2.855,2.855,229.108,235.472,179.279
0.157,15.584,2.907,2.907,229.122,235.374,179.142
0.158,15.759,2.959,2.959,229.137,235.272,179.000
0.160,15.936,3.007,3.007,229.153,235.170,178.857
0.161,16.108,3.048,3.048,229.168,235.069,178.718
0.163,16.271,3.081,3.081,229.182,234.973,178.588
0.164,16.417,3.106,3.106,229.196,234.884,178.472
0.165,16.543,3.123,3.123,229.209,234.807,178.374
0.167,16.642,3.134,3.134,229.221,234.742,178.299
0.168,16.713,3.141,3.141,229.232,234.693,178.249
0.170,16.759,3.145,3.145,229.241,234.658,178.221
0.171,16.786,3.148,3.148,229.248,234.635,178.210
0.173,16.800,3.151,3.151,229.255,234.622,178.211
0.174,16.810,3.156,3.156,229.260,234.619,178.220
0.175,16.822,3.162,3.162,229.264,234.623,178.231
0.177,16.835,3.169,3.169,229.267,234.632,178.239
0.178,16.849,3.178,3.178,229.269,234.646,178.241
0.180,16.868,3.190,3.190,229.269,234.662,178.231
0.181,16.900,3.203,3.203,229.269,234.679,178.204
0.183,16.947,3.219,3.219,229.268,234.696,178.160
0.184,17.009,3.237,3.237,229.267,234.711,178.100
0.185,17.081,3.257,3.257,229.269,234.723,178.029
0.187,17.162,3.277,3.277,229.273,234.732,177.948
0.188,17.250,3.297,3.297,229.281,234.735,177.861
0.190,17.341,3.315,3.315,229.295,234.734,177.771
0.191,17.434,3.332,3.332,229.314,234.725,177.680
0.193,17.528,3.345,3.345,229.341,234.709,177.592
0.194,17.622,3.356,3.356,229.377,234.684,177.509
0.195,17.715,3.363,3.363,229.422,234.649,177.434
0.197,17.811,3.368,3.368,229.476,234.605,177.368
0.198,17.909,3.370,3.370,229.536,234.556,177.309
0.200,18.009,3.370,3.370,229.602,234.502,177.257
0.201,18.109,3.368,3.368,229.670,234.447,177.209
0.203,18.208,3.364,3.364,229.740,234.392,177.165
0.204,18.303,3.359,3.359,229.809,234.340,177.123
0.205,18.394,3.353,3.353,229.875,234.293,177.083
0.207,18.477,3.348,3.348,229.937,234.254,177.043
0.208,18.553,3.344,3.344,229.993,234.225,177.003
0.210,18.619,3.343,3.343,230.040,234.206,176.960
0.211,18.682,3.345,3.345,230.081,234.199,176.914
0.213,18.744,3.352,3.352,230.117,234.203,176.863
0.214,18.810,3.364,3.364,230.148,234.215,176.805
0.215,18.883,3.381,3.381,230.176,234.235,176.741
0.217,18.966,3.402,3.402,230.203,234.263,176.668
0.218,19.059,3.428,3.428,230.229,234.296,176.585
0.220,19.165,3.457,3.457,230.257,234.335,176.490
0.221,19.284,3.490,3.490,230.287,234.378,176.383
0.223,19.418,3.526,3.526,230.321,234.424,176.262
0.224,19.566,3.564,3.564,230.358,234.472,176.127
0.225,19.722,3.604,3.604,230.397,234.525,175.986
0.227,19.881,3.641,3.641,230.434,234.583,175.842
0.228,20.038,3.676,3.676,230.466,234.649,175.703
0.230,20.188,3.705,3.705,230.489,234.723,175.575
0.231,20.327,3.728,3.728,230.501,234.807,175.464
0.233,20.458,3.741,3.741,230.498,234.902,175.376
0.234,20.583,3.745,3.745,230.477,235.011,175.316
0.235,20.715,3.740,3.740,230.436,235.134,175.292
0.237,20.869,3.731,3.731,230.371,235.273,175.309
0.238,21.055,3.720,3.720,230.282,235.426,175.364
0.240,21.268,3.708,3.708,230.172,235.588,175.448
0.241,21.503,3.699,3.699,230.044,235.756,175.551
0.243,21.750,3.695,3.695,229.901,235.924,175.661
0.244,22.000,3.698,3.698,229.746,236.089,175.770
0.245,22.245,3.704,3.704,229.583,236.244,175.865
0.247,22.476,3.709,3.709,229.415,236.386,175.937
0.248,22.691,3.709,3.709,229.244,236.510,175.976
0.250,22.889,3.699,3.699,229.074,236.611,175.970
0.251,23.081,3.675,3.675,228.907,236.685,175.912
0.252,23.283,3.633,3.633,228.743,236.734,175.803
0.254,23.507,3.569,3.569,228.579,236.761,175.653
0.255,23.755,3.489,3.489,228.413,236.771,175.470
0.257,24.023,3.396,3.396,228.241,236.768,175.264
0.258,24.308,3.296,3.296,228.062,236.756,175.042
0.260,24.605,3.194,3.194,227.872,236.739,174.815
0.261,24.908,3.096,3.096,227.669,236.721,174.591
0.262,25.212,3.007,3.007,227.451,236.705,174.379
0.264,25.516,2.930,2.930,227.214,236.697,174.188
0.265,25.820,2.869,2.869,226.959,236.699,174.024
0.267,26.126,2.822,2.822,226.688,236.708,173.881
0.268,26.433,2.789,2.789,226.410,236.719,173.753
0.270,26.740,2.770,2.770,226.128,236.728,173.631
0.271,27.043,2.766,2.766,225.851,236.731,173.509
0.272,27.341,2.777,2.777,225.583,236.722,173.378
0.274,27.634,2.802,2.802,225.331,236.699,173.230
0.275,27.924,2.841,2.841,225.101,236.655,173.059
0.277,28.218,2.896,2.896,224.899,236.588,172.856
0.278,28.528,2.968,2.968,224.731,236.492,172.615
0.280,28.864,3.057,3.057,224.599,236.366,172.333
0.281,29.224,3.163,3.163,224.501,236.217,172.020
0.282,29.601,3.288,3.288,224.430,236.049,171.689
0.284,29.987,3.431,3.431,224.384,235.870,171.351
0.285,30.370,3.588,3.588,224.358,235.685,171.016
0.287,30.739,3.750,3.750,224.347,235.500,170.697
0.288,31.083,3.910,3.910,224.346,235.321,170.404
0.290,31.387,4.059,4.059,224.353,235.154,170.149
0.291,31.641,4.190,4.190,224.361,235.006,169.944
0.292,31.833,4.294,4.294,224.368,234.881,169.798
0.294,31.964,4.364,4.364,224.368,234.783,169.712
0.295,32.048,4.401,4.401,224.361,234.708,169.674
0.297,32.103,4.412,4.412,224.344,234.656,169.672
0.298,32.153,4.402,4.402,224.315,234.623,169.697
0.300,32.214,4.379,4.379,224.270,234.609,169.735
0.301,32.288,4.348,4.348,224.208,234.610,169.776
0.302,32.378,4.316,4.316,224.126,234.626,169.809
0.304,32.486,4.289,4.289,224.022,234.653,169.821
0.305,32.621,4.270,4.270,223.894,234.691,169.802
0.307,32.792,4.256,4.256,223.740,234.737,169.742
0.308,33.003,4.247,4.247,223.561,234.790,169.644
0.310,33.248,4.241,4.241,223.362,234.849,169.514
0.311,33.520,4.236,4.236,223.147,234.914,169.361
0.312,33.812,4.231,4.231,222.918,234.983,169.192
0.314,34.117,4.225,4.225,222.681,235.056,169.016
0.315,34.427,4.218,4.218,222.437,235.132,168.839
0.317,34.735,4.211,4.211,222.193,235.211,168.670
0.318,35.033,4.206,4.206,221.950,235.291,168.516
0.320,35.315,4.205,4.205,221.714,235.371,168.385
0.321,35.578,4.210,4.210,221.486,235.452,168.282
0.322,35.821,4.222,4.222,221.269,235.530,168.204
0.324,36.048,4.244,4.244,221.063,235.604,168.147
0.325,36.258,4.274,4.274,220.868,235.672,168.106
0.327,36.453,4.308,4.308,220.686,235.732,168.076
0.328,36.631,4.343,4.343,220.516,235.783,168.053
0.330,36.792,4.373,4.373,220.361,235.821,168.032
0.331,36.937,4.395,4.395,220.220,235.846,168.009
0.332,37.066,4.405,4.405,220.094,235.854,167.979
0.334,37.184,4.398,4.398,219.985,235.845,167.938
0.335,37.296,4.374,4.374,219.891,235.818,167.882
0.337,37.409,4.338,4.338,219.811,235.775,167.815
0.338,37.527,4.294,4.294,219.744,235.717,167.738
0.340,37.650,4.248,4.248,219.687,235.648,167.653
0.341,37.780,4.205,4.205,219.639,235.569,167.563
0.342,37.915,4.171,4.171,219.598,235.482,167.468
0.344,38.054,4.150,4.150,219.562,235.389,167.371
0.345,38.194,4.145,4.145,219.530,235.292,167.275
0.347,38.333,4.154,4.154,219.500,235.194,167.180
0.348,38.469,4.172,4.172,219.469,235.097,167.090
0.350,38.601,4.196,4.196,219.438,235.002,167.005
0.351,38.727,4.223,4.223,219.407,234.910,166.924
0.352,38.848,4.249,4.249,219.375,234.823,166.847
0.354,38.962,4.270,4.270,219.342,234.742,166.774
0.355,39.068,4.284,4.284,219.310,234.668,166.704
0.357,39.167,4.292,4.292,219.277,234.603,166.637
0.358,39.258,4.294,4.294,219.244,234.547,166.573
0.359,39.341,4.291,4.291,219.211,234.502,166.512
0.361,39.416,4.283,4.283,219.178,234.470,166.453
0.362,39.486,4.272,4.272,219.145,234.450,166.395
0.364,39.555,4.259,4.259,219.111,234.441,166.336
0.365,39.628,4.244,4.244,219.074,234.440,166.272
0.367,39.710,4.228,4.228,219.035,234.444,166.200
0.368,39.805,4.212,4.212,218.991,234.449,166.117
0.369,39.915,4.199,4.199,218.941,234.452,166.018
0.371,40.045,4.189,4.189,218.883,234.450,165.901
0.372,40.199,4.184,4.184,218.818,234.440,165.762
0.374,40.381,4.185,4.185,218.743,234.419,165.598
0.375,40.595,4.193,4.193,218.657,234.383,165.405
0.377,40.843,4.206,4.206,218.560,234.332,165.183
0.378,41.118,4.220,4.220,218.455,234.270,164.936
0.379,41.410,4.234,4.234,218.344,234.203,164.674
0.381,41.711,4.244,4.244,218.233,234.138,164.403
0.382,42.010,4.248,4.248,218.123,234.079,164.131
0.384,42.300,4.244,4.244,218.017,234.034,163.864
0.385,42.572,4.229,4.229,217.920,234.008,163.612
0.387,42.819,4.206,4.206,217.835,234.006,163.380
0.388,43.037,4.176,4.176,217.764,234.035,163.176
0.389,43.225,4.144,4.144,217.712,234.100,163.007
0.391,43.394,4.112,4.112,217.678,234.203,162.877
0.392,43.560,4.084,4.084,217.662,234.338,162.782
0.394,43.733,4.062,4.062,217.662,234.499,162.719
0.395,43.917,4.048,4.048,217.676,234.679,162.683
0.397,44.114,4.042,4.042,217.701,234.874,162.672
0.398,44.320,4.040,4.040,217.736,235.077,162.682
0.399,44.532,4.039,4.039,217.780,235.282,162.708
0.401,44.743,4.036,4.036,217.830,235.483,162.748
0.402,44.948,4.029,4.029,217.884,235.675,162.798
0.404,45.141,4.014,4.014,217.941,235.851,162.854
0.405,45.321,3.989,3.989,217.998,236.010,162.914
0.407,45.487,3.955,3.955,218.054,236.154,162.974
0.408,45.638,3.915,3.915,218.106,236.284,163.032
0.409,45.776,3.871,3.871,218.152,236.402,163.085
0.411,45.898,3.825,3.825,218.191,236.510,163.130
0.412,46.006,3.782,3.782,218.219,236.608,163.165
0.414,46.100,3.744,3.744,218.235,236.698,163.187
0.415,46.184,3.712,3.712,218.237,236.782,163.193
0.417,46.266,3.687,3.687,218.223,236.861,163.180
0.418,46.354,3.667,3.667,218.190,236.937,163.147
0.419,46.458,3.647,3.647,218.141,237.011,163.096
0.421,46.577,3.627,3.627,218.075,237.086,163.030
0.422,46.713,3.603,3.603,217.994,237.164,162.953
0.424,46.864,3.573,3.573,217.900,237.247,162.870
0.425,47.027,3.535,3.535,217.794,237.336,162.782
0.427,47.203,3.489,3.489,217.677,237.435,162.696
0.428,47.389,3.439,3.439,217.551,237.544,162.612
0.429,47.586,3.387,3.387,217.417,237.665,162.537
0.431,47.792,3.336,3.336,217.276,237.802,162.473
0.432,48.008,3.289,3.289,217.131,237.953,162.422
0.434,48.231,3.250,3.250,216.982,238.116,162.383
0.435,48.457,3.221,3.221,216.835,238.284,162.355
0.437,48.681,3.202,3.202,216.691,238.454,162.335
0.438,48.897,3.192,3.192,216.553,238.620,162.322
0.439,49.101,3.188,3.188,216.424,238.778,162.315
0.441,49.288,3.189,3.189,216.306,238.923,162.310
0.442,49.451,3.193,3.193,216.204,239.050,162.307
0.444,49.586,3.196,3.196,216.119,239.155,162.303
0.445,49.687,3.198,3.198,216.054,239.232,162.298
0.447,49.755,3.197,3.197,216.009,239.282,162.290
0.448,49.794,3.194,3.194,215.979,239.307,162.280
0.449,49.816,3.188,3.188,215.961,239.311,162.269
0.451,49.836,3.180,3.180,215.951,239.298,162.258
0.452,49.865,3.170,3.170,215.943,239.272,162.247
0.454,49.903,3.159,3.159,215.934,239.236,162.238
0.455,49.948,3.146,3.146,215.919,239.195,162.231
0.456,49.998,3.132,3.132,215.894,239.151,162.227
0.458,50.055,3.116,3.116,215.855,239.109,162.226
0.459,50.123,3.099,3.099,215.798,239.073,162.231
0.461,50.203,3.081,3.081,215.725,239.042,162.239
0.462,50.292,3.062,3.062,215.640,239.017,162.249
0.464,50.388,3.041,3.041,215.546,238.997,162.259
0.465,50.487,3.019,3.019,215.450,238.981,162.268
0.466,50.583,2.995,2.995,215.354,238.968,162.273
0.468,50.674,2.970,2.970,215.264,238.958,162.273
0.469,50.755,2.943,2.943,215.183,238.950,162.266
0.471,50.823,2.915,2.915,215.117,238.944,162.251
0.472,50.878,2.886,2.886,215.069,238.939,162.226
0.474,50.924,2.855,2.855,215.042,238.934,162.189
0.475,50.974,2.823,2.823,215.029,238.932,162.141
0.476,51.033,2.789,2.789,215.021,238.934,162.082
0.478,51.102,2.752,2.752,215.007,238.944,162.015
0.479,51.185,2.712,2.712,214.979,238.963,161.939
0.481,51.287,2.665,2.665,214.927,238.993,161.857
0.482,51.418,2.612,2.612,214.843,239.037,161.768
0.484,51.587,2.552,2.552,214.716,239.098,161.674
0.485,51.806,2.482,2.482,214.536,239.177,161.576
0.486,52.086,2.403,2.403,214.296,239.277,161.474
0.488,52.428,2.320,2.320,213.992,239.397,161.371
0.489,52.822,2.238,2.238,213.639,239.534,161.266
0.491,53.250,2.162,2.162,213.250,239.682,161.163
0.492,53.699,2.097,2.097,212.841,239.836,161.061
0.494,54.152,2.048,2.048,212.426,239.990,160.962
0.495,54.594,2.021,2.021,212.021,240.141,160.868
0.496,55.010,2.019,2.019,211.641,240.282,160.779
0.498,55.382,2.038,2.038,211.300,240.408,160.698
0.499,55.696,2.073,2.073,211.014,240.515,160.625
0.501,55.938,2.120,2.120,210.796,240.597,160.562
0.502,56.104,2.172,2.172,210.648,240.655,160.509
0.504,56.208,2.224,2.224,210.561,240.692,160.466
0.505,56.263,2.273,2.273,210.522,240.713,160.434
0.506,56.287,2.312,2.312,210.520,240.722,160.413
0.508,56.313,2.343,2.343,210.544,240.725,160.402
0.509,56.351,2.367,2.367,210.582,240.725,160.401
0.511,56.394,2.385,2.385,210.623,240.727,160.410
0.512,56.434,2.399,2.399,210.656,240.735,160.431
0.514,56.472,2.409,2.409,210.670,240.755,160.461
0.515,56.528,2.417,2.417,210.654,240.790,160.502
0.516,56.611,2.425,2.425,210.609,240.839,160.551
0.518,56.719,2.431,2.431,210.540,240.901,160.606
0.519,56.844,2.436,2.436,210.454,240.971,160.666
0.521,56.982,2.438,2.438,210.357,241.047,160.726
0.522,57.126,2.436,2.436,210.253,241.127,160.785
0.524,57.269,2.431,2.431,210.149,241.207,160.841
0.525,57.404,2.421,2.421,210.050,241.285,160.891
0.526,57.525,2.406,2.406,209.963,241.359,160.932
0.528,57.626,2.386,2.386,209.893,241.424,160.963
0.529,57.702,2.363,2.363,209.845,241.480,160.981
0.531,57.758,2.340,2.340,209.815,241.526,160.988
0.532,57.799,2.317,2.317,209.801,241.565,160.986
0.534,57.834,2.296,2.296,209.799,241.598,160.976
0.535,57.868,2.279,2.279,209.805,241.627,160.960
0.536,57.902,2.267,2.267,209.817,241.653,160.940
0.538,57.938,2.260,2.260,209.830,241.677,160.917
0.539,57.973,2.258,2.258,209.842,241.701,160.895
0.541,58.006,2.257,2.257,209.848,241.727,160.874
0.542,58.040,2.258,2.258,209.845,241.756,160.856
0.544,58.078,2.259,2.259,209.831,241.788,160.842
0.545,58.120,2.260,2.260,209.807,241.821,160.833
0.546,58.167,2.257,2.257,209.775,241.855,160.826
0.548,58.218,2.253,2.253,209.735,241.886,160.823
0.549,58.272,2.246,2.246,209.688,241.914,160.823
0.551,58.328,2.238,2.238,209.637,241.936,160.824
0.552,58.386,2.229,2.229,209.581,241.950,160.827
0.553,58.446,2.219,2.219,209.521,241.955,160.831
0.555,58.507,2.209,2.209,209.461,241.949,160.836
0.556,58.572,2.199,2.199,209.399,241.930,160.840
0.558,58.641,2.189,2.189,209.336,241.899,160.846
0.559,58.717,2.177,2.177,209.272,241.861,160.852
0.561,58.798,2.164,2.164,209.203,241.818,160.860
0.562,58.884,2.148,2.148,209.130,241.774,160.871
0.563,58.974,2.128,2.128,209.051,241.734,160.886
0.565,59.068,2.103,2.103,208.965,241.701,160.905
0.566,59.169,2.072,2.072,208.870,241.679,160.929
0.568,59.278,2.036,2.036,208.765,241.671,160.958
0.569,59.400,1.996,1.996,208.649,241.681,160.995
0.571,59.539,1.955,1.955,208.521,241.713,161.039
0.572,59.695,1.914,1.914,208.382,241.764,161.088
0.573,59.864,1.875,1.875,208.235,241.828,161.141
0.575,60.041,1.840,1.840,208.082,241.900,161.195
0.576,60.223,1.811,1.811,207.926,241.976,161.247
0.578,60.404,1.788,1.788,207.768,242.051,161.295
0.579,60.579,1.772,1.772,207.612,242.119,161.338
0.581,60.745,1.762,1.762,207.460,242.176,161.371
