"T","Distance","Radius","FreeRadius","X","Y","Z"
0.000,0.000,1.305,1.305,223.193,230.048,186.002
0.002,0.085,1.320,1.320,223.139,230.047,185.936
0.004,0.168,1.335,1.335,223.086,230.046,185.872
0.006,0.248,1.351,1.351,223.035,230.047,185.811
0.009,0.321,1.369,1.369,222.988,230.052,185.755
0.011,0.387,1.390,1.390,222.945,230.060,185.706
0.013,0.443,1.412,1.412,222.907,230.072,185.666
0.015,0.491,1.436,1.436,222.876,230.091,185.635
0.017,0.529,1.462,1.462,222.853,230.116,185.617
0.019,0.565,1.487,1.487,222.838,230.148,185.612
0.021,0.603,1.511,1.511,222.830,230.185,185.617
0.023,0.638,1.532,1.532,222.827,230.218,185.625
0.026,0.662,1.546,1.546,222.823,230.242,185.631
0.028,0.673,1.547,1.547,222.818,230.250,185.626
0.030,0.701,1.532,1.532,222.807,230.235,185.605
0.032,0.766,1.498,1.498,222.786,230.191,185.562
0.034,0.879,1.450,1.450,222.754,230.112,185.489
0.036,1.050,1.398,1.398,222.706,229.989,185.379
0.038,1.281,1.352,1.352,222.642,229.823,185.233
0.041,1.557,1.322,1.322,222.566,229.624,185.056
0.043,1.864,1.316,1.316,222.482,229.404,184.860
0.045,2.186,1.329,1.329,222.395,229.174,184.652
0.047,2.507,1.355,1.355,222.310,228.946,184.444
0.049,2.811,1.388,1.388,222.231,228.730,184.243
0.051,3.085,1.422,1.422,222.163,228.540,184.059
0.053,3.311,1.453,1.453,222.111,228.386,183.901
0.055,3.478,1.484,1.484,222.077,228.278,183.778
0.058,3.591,1.516,1.516,222.062,228.214,183.687
0.060,3.660,1.552,1.552,222.061,228.186,183.624
0.062,3.702,1.593,1.593,222.072,228.186,183.583
0.064,3.740,1.639,1.639,222.092,228.209,183.560
0.066,3.786,1.684,1.684,222.117,228.246,183.549
0.068,3.839,1.723,1.723,222.144,228.291,183.546
0.070,3.892,1.750,1.750,222.171,228.337,183.545
0.072,3.937,1.762,1.762,222.193,228.376,183.542
0.075,3.974,1.761,1.761,222.212,228.406,183.534
0.077,4.006,1.752,1.752,222.228,228.430,183.521
0.079,4.039,1.742,1.742,222.244,228.451,183.501
0.081,4.076,1.734,1.734,222.261,228.471,183.474
0.083,4.121,1.732,1.732,222.282,228.492,183.440
0.085,4.177,1.733,1.733,222.309,228.517,183.398
0.087,4.246,1.730,1.730,222.344,228.549,183.348
0.090,4.330,1.719,1.719,222.388,228.590,183.289
0.092,4.431,1.695,1.695,222.443,228.641,183.221
0.094,4.543,1.657,1.657,222.507,228.695,183.147
0.096,4.660,1.611,1.611,222.578,228.745,183.069
0.098,4.776,1.563,1.563,222.654,228.784,182.990
0.100,4.889,1.521,1.521,222.733,228.803,182.912
0.102,4.997,1.490,1.490,222.812,228.796,182.839
0.104,5.108,1.471,1.471,222.890,228.754,182.772
0.107,5.233,1.461,1.461,222.964,228.671,182.714
0.109,5.388,1.457,1.457,223.033,228.541,182.668
0.111,5.576,1.455,1.455,223.097,228.367,182.634
0.113,5.792,1.453,1.453,223.159,228.162,182.609
0.115,6.027,1.449,1.449,223.218,227.936,182.593
0.117,6.271,1.445,1.445,223.279,227.699,182.584
0.119,6.516,1.440,1.440,223.342,227.462,182.580
0.122,6.751,1.435,1.435,223.409,227.237,182.580
0.124,6.968,1.430,1.430,223.482,227.033,182.583
0.126,7.157,1.426,1.426,223.563,226.862,182.586
0.128,7.318,1.422,1.422,223.652,226.727,182.590
0.130,7.460,1.420,1.420,223.749,226.624,182.594
0.132,7.589,1.420,1.420,223.850,226.545,182.600
0.134,7.711,1.421,1.421,223.956,226.484,182.607
0.136,7.830,1.419,1.419,224.064,226.435,182.617
0.139,7.948,1.413,1.413,224.173,226.392,182.631
0.141,8.066,1.400,1.400,224.281,226.349,182.648
0.143,8.185,1.377,1.377,224.387,226.298,182.669
0.145,8.307,1.347,1.347,224.490,226.237,182.695
0.147,8.433,1.319,1.319,224.589,226.165,182.727
0.149,8.562,1.299,1.299,224.683,226.086,182.764
0.151,8.693,1.294,1.294,224.774,226.002,182.806
0.154,8.825,1.310,1.310,224.861,225.916,182.855
0.156,8.956,1.343,1.343,224.943,225.831,182.911
0.158,9.085,1.386,1.386,225.020,225.749,182.973
0.160,9.211,1.434,1.434,225.093,225.673,183.043
0.162,9.334,1.481,1.481,225.161,225.606,183.120
0.164,9.455,1.522,1.522,225.225,225.546,183.203
0.166,9.575,1.557,1.557,225.285,225.490,183.292
0.168,9.696,1.588,1.588,225.341,225.434,183.383
0.171,9.818,1.616,1.616,225.393,225.375,183.476
0.173,9.942,1.642,1.642,225.444,225.310,183.570
0.175,10.070,1.667,1.667,225.492,225.234,183.661
0.177,10.204,1.692,1.692,225.538,225.145,183.749
0.179,10.347,1.719,1.719,225.584,225.038,183.832
0.181,10.501,1.749,1.749,225.629,224.913,183.910
0.183,10.666,1.782,1.782,225.672,224.772,183.983
0.186,10.840,1.818,1.818,225.713,224.618,184.054
0.188,11.023,1.855,1.855,225.751,224.454,184.125
0.190,11.210,1.890,1.890,225.787,224.284,184.197
0.192,11.401,1.921,1.921,225.818,224.112,184.273
0.194,11.593,1.947,1.947,225.846,223.940,184.353
0.196,11.785,1.973,1.973,225.868,223.771,184.440
0.198,11.973,2.004,2.004,225.886,223.609,184.536
0.200,12.158,2.048,2.048,225.898,223.455,184.637
0.203,12.338,2.109,2.109,225.906,223.310,184.742
0.205,12.510,2.189,2.189,225.909,223.175,184.848
0.207,12.672,2.279,2.279,225.909,223.050,184.952
0.209,12.822,2.368,2.368,225.906,222.936,185.050
0.211,12.957,2.446,2.446,225.900,222.836,185.140
0.213,13.076,2.502,2.502,225.892,222.748,185.220
0.215,13.175,2.536,2.536,225.882,222.674,185.285
0.217,13.255,2.554,2.554,225.871,222.613,185.337
0.220,13.320,2.562,2.562,225.859,222.564,185.377
0.222,13.372,2.569,2.569,225.847,222.524,185.407
0.224,13.415,2.580,2.580,225.835,222.490,185.430
0.226,13.451,2.596,2.596,225.824,222.460,185.448
0.228,13.484,2.616,2.616,225.814,222.433,185.463
0.230,13.516,2.637,2.637,225.805,222.405,185.477
0.232,13.550,2.659,2.659,225.798,222.375,185.492
0.235,13.589,2.679,2.679,225.794,222.342,185.510
0.237,13.631,2.698,2.698,225.791,222.305,185.531
0.239,13.675,2.715,2.715,225.790,222.267,185.553
0.241,13.720,2.731,2.731,225.792,222.229,185.576
0.243,13.763,2.746,2.746,225.794,222.192,185.599
0.245,13.803,2.760,2.760,225.797,222.158,185.620
0.247,13.839,2.772,2.772,225.802,222.127,185.638
0.249,13.869,2.782,2.782,225.807,222.102,185.654
0.252,13.891,2.788,2.788,225.813,222.084,185.665
0.254,13.907,2.792,2.792,225.818,222.072,185.673
0.256,13.917,2.792,2.792,225.824,222.065,185.677
0.258,13.923,2.790,2.790,225.829,222.062,185.678
0.260,13.927,2.788,2.788,225.833,222.062,185.677
0.262,13.932,2.786,2.786,225.836,222.064,185.674
0.264,13.938,2.786,2.786,225.838,222.068,185.669
0.267,13.945,2.787,2.787,225.838,222.071,185.664
0.269,13.951,2.789,2.789,225.837,222.074,185.658
0.271,13.958,2.792,2.792,225.833,222.074,185.652
0.273,13.965,2.795,2.795,225.830,222.070,185.647
0.275,13.976,2.798,2.798,225.827,222.061,185.643
0.277,13.993,2.800,2.800,225.826,222.044,185.641
0.279,14.018,2.799,2.799,225.829,222.019,185.641
0.281,14.055,2.795,2.795,225.837,221.983,185.644
0.284,14.106,2.786,2.786,225.850,221.934,185.650
0.286,14.172,2.773,2.773,225.871,221.872,185.661
0.288,14.256,2.758,2.758,225.900,221.795,185.675
0.290,14.351,2.743,2.743,225.933,221.707,185.692
0.292,14.454,2.729,2.729,225.968,221.612,185.711
0.294,14.559,2.718,2.718,226.000,221.515,185.730
0.296,14.659,2.709,2.709,226.026,221.419,185.747
0.299,14.751,2.703,2.703,226.043,221.330,185.763
0.301,14.831,2.698,2.698,226.046,221.251,185.774
0.303,14.897,2.692,2.692,226.032,221.187,185.780
0.305,14.953,2.685,2.685,225.997,221.143,185.780
0.307,15.014,2.677,2.677,225.943,221.115,185.773
0.309,15.087,2.670,2.670,225.872,221.100,185.762
0.311,15.173,2.666,2.666,225.788,221.092,185.747
0.313,15.268,2.666,2.666,225.695,221.085,185.732
0.316,15.369,2.671,2.671,225.595,221.074,185.717
0.318,15.475,2.678,2.678,225.492,221.053,185.703
0.320,15.583,2.687,2.687,225.391,221.018,185.693
0.322,15.696,2.693,2.693,225.293,220.962,185.689
0.324,15.816,2.696,2.696,225.200,220.885,185.691
0.326,15.946,2.693,2.693,225.110,220.792,185.699
0.328,16.082,2.685,2.685,225.018,220.693,185.714
0.330,16.222,2.671,2.671,224.922,220.594,185.737
0.333,16.364,2.651,2.651,224.817,220.503,185.767
0.335,16.507,2.625,2.625,224.700,220.428,185.804
0.337,16.656,2.595,2.595,224.568,220.377,185.849
0.339,16.818,2.565,2.565,224.417,220.356,185.903
0.341,17.002,2.536,2.536,224.244,220.372,185.964
0.343,17.210,2.514,2.514,224.054,220.422,186.031
0.345,17.435,2.500,2.500,223.853,220.496,186.102
0.348,17.671,2.492,2.492,223.649,220.588,186.175
0.350,17.908,2.488,2.488,223.448,220.690,186.247
0.352,18.136,2.485,2.485,223.256,220.794,186.316
0.354,18.347,2.481,2.481,223.081,220.892,186.380
0.356,18.530,2.473,2.473,222.929,220.977,186.436
0.358,18.676,2.464,2.464,222.806,221.041,186.482
0.360,18.784,2.457,2.457,222.713,221.082,186.518
0.362,18.863,2.455,2.455,222.644,221.106,186.547
0.365,18.922,2.459,2.459,222.591,221.118,186.572
0.367,18.969,2.471,2.471,222.550,221.121,186.595
0.369,19.013,2.487,2.486,222.513,221.122,186.619
0.371,19.060,2.504,2.503,222.475,221.125,186.646
0.373,19.119,2.519,2.519,222.428,221.135,186.680
0.375,19.196,2.529,2.530,222.367,221.158,186.723
0.377,19.299,2.537,2.537,222.288,221.195,186.776
0.380,19.421,2.546,2.546,222.195,221.245,186.837
0.382,19.556,2.559,2.559,222.092,221.303,186.902
0.384,19.697,2.580,2.580,221.985,221.368,186.968
0.386,19.838,2.611,2.611,221.879,221.435,187.033
0.388,19.972,2.649,2.648,221.779,221.500,187.092
0.390,20.091,2.686,2.685,221.689,221.561,187.142
0.392,20.189,2.718,2.717,221.616,221.613,187.180
0.394,20.261,2.738,2.739,221.563,221.655,187.204
0.397,20.308,2.744,2.746,221.528,221.685,187.215
0.399,20.335,2.741,2.744,221.509,221.705,187.218
0.401,20.349,2.735,2.738,221.500,221.715,187.217
0.403,20.353,2.730,2.732,221.498,221.719,187.215
0.405,20.358,2.733,2.731,221.498,221.715,187.219
0.407,20.374,2.742,2.735,221.497,221.706,187.232
0.409,20.404,2.752,2.740,221.489,221.694,187.258
0.412,20.453,2.754,2.743,221.471,221.678,187.301
0.414,20.526,2.743,2.739,221.442,221.660,187.365
0.416,20.618,2.711,2.726,221.406,221.635,187.447
0.418,20.729,2.663,2.702,221.367,221.602,187.545
0.420,20.857,2.603,2.667,221.330,221.559,187.660
0.422,21.001,2.540,2.622,221.298,221.501,187.788
0.424,21.161,2.479,2.569,221.278,221.427,187.928
0.426,21.339,2.425,2.507,221.271,221.334,188.080
0.429,21.537,2.378,2.440,221.284,221.219,188.241
0.431,21.758,2.333,2.371,221.317,221.081,188.410
0.433,22.000,2.290,2.303,221.369,220.923,188.586
0.435,22.259,2.244,2.240,221.432,220.748,188.766
0.437,22.531,2.197,2.186,221.501,220.561,188.950
0.439,22.810,2.153,2.141,221.571,220.366,189.137
0.441,23.091,2.118,2.110,221.636,220.166,189.324
0.443,23.369,2.097,2.095,221.689,219.966,189.510
0.446,23.640,2.096,2.097,221.726,219.770,189.693
0.448,23.901,2.114,2.117,221.742,219.582,189.873
0.450,24.149,2.147,2.150,221.736,219.404,190.046
0.452,24.384,2.191,2.193,221.714,219.237,190.210
0.454,24.603,2.240,2.241,221.681,219.082,190.361
0.456,24.802,2.291,2.290,221.642,218.941,190.496
0.458,24.979,2.337,2.336,221.603,218.814,190.613
0.461,25.129,2.376,2.376,221.567,218.702,190.707
0.463,25.249,2.403,2.403,221.540,218.608,190.775
0.465,25.337,2.414,2.414,221.527,218.530,190.816
0.467,25.399,2.407,2.408,221.532,218.470,190.828
0.469,25.450,2.389,2.390,221.551,218.424,190.821
0.471,25.503,2.368,2.369,221.584,218.386,190.802
0.473,25.561,2.353,2.353,221.627,218.353,190.781
0.475,25.624,2.351,2.351,221.678,218.320,190.767
0.478,25.692,2.366,2.366,221.736,218.284,190.767
0.480,25.772,2.393,2.393,221.798,218.240,190.792
0.482,25.874,2.426,2.426,221.861,218.183,190.849
0.484,26.010,2.460,2.460,221.923,218.111,190.945
0.486,26.178,2.491,2.491,221.984,218.026,191.076
0.488,26.370,2.517,2.517,222.042,217.932,191.234
0.490,26.578,2.540,2.540,222.096,217.833,191.409
0.493,26.793,2.562,2.562,222.146,217.734,191.593
0.495,27.004,2.585,2.585,222.189,217.639,191.777
0.497,27.203,2.610,2.610,222.226,217.552,191.952
0.499,27.380,2.638,2.638,222.255,217.479,192.110
0.501,27.526,2.666,2.666,222.275,217.422,192.243
0.503,27.638,2.693,2.693,222.287,217.383,192.348
0.505,27.722,2.717,2.717,222.292,217.359,192.427
0.507,27.781,2.737,2.737,222.290,217.347,192.486
0.510,27.822,2.754,2.754,222.285,217.345,192.526
0.512,27.850,2.768,2.768,222.276,217.349,192.552
0.514,27.869,2.779,2.779,222.266,217.358,192.567
0.516,27.885,2.789,2.789,222.256,217.368,192.574
0.518,27.898,2.796,2.796,222.248,217.377,192.577
0.520,27.907,2.802,2.802,222.241,217.382,192.579
0.522,27.911,2.805,2.805,222.237,217.384,192.581
0.525,27.914,2.806,2.806,222.235,217.384,192.582
0.527,27.915,2.805,2.805,222.235,217.382,192.582
0.529,27.918,2.802,2.802,222.236,217.380,192.582
0.531,27.921,2.799,2.799,222.239,217.378,192.582
0.533,27.925,2.798,2.798,222.242,217.376,192.583
0.535,27.929,2.800,2.800,222.246,217.376,192.583
0.537,27.934,2.806,2.806,222.251,217.377,192.584
0.539,27.940,2.814,2.814,222.254,217.380,192.589
0.542,27.951,2.822,2.822,222.253,217.381,192.599
0.544,27.972,2.827,2.827,222.247,217.378,192.619
0.546,28.009,2.825,2.825,222.233,217.370,192.653
0.548,28.066,2.816,2.816,222.209,217.353,192.702
0.550,28.149,2.802,2.802,222.173,217.326,192.771
0.552,28.261,2.783,2.783,222.123,217.286,192.863
0.554,28.407,2.763,2.763,222.056,217.232,192.980
0.557,28.586,2.744,2.744,221.973,217.163,193.123
0.559,28.790,2.728,2.728,221.877,217.082,193.284
0.561,29.010,2.719,2.719,221.774,216.992,193.457
0.563,29.238,2.721,2.721,221.666,216.897,193.634
0.565,29.464,2.738,2.738,221.559,216.800,193.807
0.567,29.680,2.772,2.772,221.457,216.703,193.971
0.569,29.877,2.819,2.819,221.363,216.611,194.118
0.571,30.046,2.870,2.870,221.281,216.526,194.240
0.574,30.183,2.916,2.916,221.215,216.450,194.332
0.576,30.291,2.947,2.947,221.163,216.383,194.398
0.578,30.377,2.956,2.956,221.120,216.323,194.442
0.580,30.448,2.946,2.946,221.082,216.268,194.469
0.582,30.513,2.923,2.923,221.046,216.217,194.483
0.584,30.576,2.892,2.892,221.009,216.167,194.490
0.586,30.642,2.857,2.857,220.965,216.117,194.494
0.588,30.716,2.824,2.824,220.913,216.065,194.499
0.591,30.803,2.793,2.793,220.848,216.009,194.511
0.593,30.901,2.767,2.767,220.770,215.951,194.530
0.595,31.008,2.747,2.747,220.686,215.891,194.555
0.597,31.119,2.733,2.733,220.597,215.832,194.585
0.599,31.228,2.726,2.726,220.510,215.775,194.619
0.601,31.332,2.725,2.725,220.428,215.723,194.655
0.603,31.426,2.729,2.729,220.355,215.676,194.693
0.606,31.505,2.736,2.736,220.296,215.638,194.730
0.608,31.567,2.746,2.746,220.254,215.610,194.765
0.610,31.610,2.757,2.757,220.232,215.592,194.798
0.612,31.644,2.768,2.768,220.225,215.582,194.829
0.614,31.673,2.777,2.777,220.230,215.574,194.857
0.616,31.703,2.783,2.783,220.241,215.567,194.883
0.618,31.733,2.784,2.784,220.255,215.557,194.908
0.620,31.763,2.780,2.780,220.266,215.540,194.930
0.623,31.798,2.769,2.769,220.272,215.513,194.951
0.625,31.843,2.752,2.752,220.266,215.472,194.970
0.627,31.907,2.727,2.727,220.246,215.414,194.988
0.629,31.990,2.694,2.694,220.212,215.340,195.004
0.631,32.092,2.655,2.655,220.165,215.250,195.017
0.633,32.211,2.609,2.609,220.107,215.147,195.027
0.635,32.346,2.558,2.558,220.040,215.030,195.033
0.638,32.495,2.503,2.503,219.965,214.901,195.035
0.640,32.656,2.444,2.444,219.884,214.762,195.032
0.642,32.828,2.385,2.385,219.799,214.612,195.024
0.644,33.009,2.327,2.327,219.712,214.455,195.010
0.646,33.198,2.273,2.273,219.622,214.290,194.991
0.648,33.393,2.225,2.225,219.529,214.120,194.969
0.650,33.593,2.185,2.185,219.433,213.946,194.946
0.652,33.797,2.156,2.156,219.333,213.769,194.925
0.655,34.003,2.141,2.141,219.228,213.592,194.907
0.657,34.212,2.142,2.142,219.117,213.416,194.896
0.659,34.421,2.162,2.162,219.001,213.243,194.894
0.661,34.630,2.194,2.194,218.877,213.073,194.902
0.663,34.840,2.233,2.233,218.747,212.910,194.921
0.665,35.047,2.272,2.272,218.614,212.754,194.950
0.667,35.247,2.306,2.306,218.480,212.609,194.985
0.670,35.437,2.332,2.332,218.351,212.476,195.024
0.672,35.613,2.353,2.353,218.228,212.357,195.063
0.674,35.769,2.370,2.370,218.117,212.254,195.099
0.676,35.901,2.387,2.387,218.019,212.170,195.130
0.678,36.005,2.406,2.406,217.939,212.106,195.153
0.680,36.079,2.427,2.427,217.880,212.065,195.164
0.682,36.125,2.448,2.448,217.840,212.042,195.167
0.684,36.155,2.465,2.465,217.812,212.033,195.167
0.687,36.175,2.476,2.476,217.792,212.030,195.166
0.689,36.193,2.478,2.478,217.775,212.028,195.171
0.691,36.219,2.474,2.474,217.755,212.022,195.186
0.693,36.263,2.463,2.463,217.727,212.005,195.216
0.695,36.335,2.449,2.449,217.686,211.972,195.265
0.697,36.444,2.433,2.433,217.627,211.916,195.338
0.699,36.593,2.417,2.417,217.547,211.837,195.435
0.701,36.774,2.410,2.410,217.448,211.736,195.548
0.704,36.979,2.415,2.415,217.332,211.618,195.671
0.706,37.203,2.442,2.442,217.201,211.488,195.796
0.708,37.436,2.495,2.495,217.057,211.348,195.915
0.710,37.674,2.574,2.574,216.901,211.204,196.022
0.712,37.911,2.670,2.670,216.736,211.057,196.108
0.714,38.143,2.770,2.770,216.563,210.914,196.166
0.716,38.369,2.864,2.864,216.385,210.776,196.192
0.719,38.593,2.941,2.941,216.204,210.644,196.189
0.721,38.813,2.997,2.997,216.025,210.519,196.164
0.723,39.028,3.036,3.036,215.851,210.398,196.125
0.725,39.236,3.058,3.058,215.685,210.283,196.076
0.727,39.432,3.066,3.066,215.531,210.173,196.026
0.729,39.612,3.062,3.062,215.392,210.067,195.980
0.731,39.773,3.051,3.051,215.272,209.966,195.946
0.733,39.913,3.041,3.041,215.174,209.869,195.928
0.736,40.036,3.038,3.038,215.095,209.773,195.927
0.738,40.153,3.049,3.049,215.030,209.677,195.933
0.740,40.269,3.077,3.077,214.974,209.575,195.939
0.742,40.392,3.116,3.116,214.919,209.465,195.937
0.744,40.527,3.158,3.158,214.861,209.344,195.921
0.746,40.684,3.196,3.196,214.794,209.208,195.881
0.748,40.873,3.224,3.224,214.711,209.054,195.810
0.751,41.104,3.241,3.241,214.607,208.879,195.700
0.753,41.382,3.255,3.255,214.480,208.683,195.550
0.755,41.696,3.274,3.274,214.337,208.471,195.368
0.757,42.032,3.308,3.308,214.184,208.252,195.164
0.759,42.377,3.363,3.363,214.031,208.031,194.948
0.761,42.717,3.438,3.438,213.883,207.816,194.730
0.763,43.038,3.525,3.525,213.749,207.614,194.520
0.765,43.326,3.615,3.615,213.636,207.432,194.327
0.768,43.568,3.701,3.701,213.551,207.277,194.162
0.770,43.753,3.776,3.776,213.500,207.154,194.033
0.772,43.887,3.838,3.838,213.479,207.062,193.939
0.774,43.980,3.890,3.890,213.476,206.994,193.874
0.776,44.043,3.931,3.931,213.485,206.947,193.834
0.778,44.081,3.963,3.963,213.494,206.915,193.814
0.780,44.104,3.987,3.987,213.496,206.893,193.810
0.783,44.128,4.006,4.006,213.480,206.876,193.816
0.785,44.174,4.022,4.022,213.439,206.859,193.827
0.787,44.255,4.038,4.038,213.362,206.836,193.839
0.789,44.370,4.057,4.057,213.251,206.807,193.850
0.791,44.513,4.079,4.079,213.113,206.773,193.859
0.793,44.674,4.102,4.102,212.957,206.735,193.866
0.795,44.843,4.123,4.123,212.792,206.696,193.872
0.797,45.013,4.140,4.140,212.627,206.656,193.876
0.800,45.173,4.150,4.150,212.471,206.617,193.879
0.802,45.316,4.156,4.156,212.334,206.581,193.881
0.804,45.431,4.158,4.158,212.222,206.550,193.882
0.806,45.515,4.160,4.160,212.143,206.525,193.881
0.808,45.572,4.162,4.162,212.089,206.504,193.883
0.810,45.613,4.168,4.168,212.053,206.485,193.888
0.812,45.647,4.173,4.173,212.028,206.467,193.899
0.814,45.683,4.176,4.176,212.004,206.448,193.919
0.817,45.730,4.171,4.171,211.975,206.426,193.950
0.819,45.797,4.157,4.157,211.933,206.400,193.994
0.821,45.890,4.132,4.132,211.869,206.369,194.054
0.823,46.016,4.102,4.102,211.777,206.330,194.131
0.825,46.175,4.073,4.073,211.657,206.284,194.224
0.827,46.360,4.052,4.052,211.513,206.234,194.330
0.829,46.568,4.044,4.044,211.348,206.181,194.445
0.832,46.792,4.048,4.048,211.167,206.127,194.565
0.834,47.027,4.060,4.060,210.974,206.075,194.687
0.836,47.267,4.074,4.074,210.771,206.026,194.807
0.838,47.509,4.083,4.083,210.563,205.983,194.922
0.840,47.746,4.084,4.084,210.354,205.947,195.029
0.842,47.978,4.078,4.078,210.145,205.917,195.125
0.844,48.208,4.070,4.070,209.933,205.893,195.211
0.846,48.442,4.067,4.067,209.714,205.869,195.289
0.849,48.682,4.074,4.074,209.486,205.844,195.360
0.851,48.934,4.094,4.094,209.245,205.814,195.425
0.853,49.200,4.130,4.130,208.988,205.777,195.485
0.855,49.486,4.179,4.179,208.711,205.728,195.542
0.857,49.796,4.243,4.243,208.413,205.666,195.596
0.859,50.132,4.320,4.320,208.090,205.589,195.648
0.861,50.487,4.410,4.410,207.751,205.498,195.701
0.864,50.851,4.509,4.509,207.405,205.397,195.755
0.866,51.215,4.614,4.614,207.062,205.291,195.813
0.868,51.570,4.723,4.723,206.729,205.182,195.875
