"T","Distance","Radius","FreeRadius","X","Y","Z"
0.000,0.000,1.305,1.305,223.193,230.048,186.002
0.001,0.066,1.320,1.320,223.154,230.047,185.948
0.002,0.132,1.335,1.335,223.114,230.046,185.896
0.004,0.195,1.349,1.349,223.076,230.045,185.846
0.005,0.256,1.364,1.364,223.039,230.046,185.798
0.006,0.313,1.379,1.379,223.003,230.049,185.753
0.007,0.365,1.394,1.394,222.969,230.054,185.714
0.008,0.412,1.410,1.410,222.938,230.062,185.679
0.009,0.454,1.425,1.425,222.910,230.073,185.651
0.011,0.489,1.441,1.441,222.885,230.087,185.630
0.012,0.520,1.456,1.456,222.863,230.105,185.618
0.013,0.549,1.471,1.471,222.845,230.128,185.614
0.014,0.580,1.483,1.483,222.832,230.155,185.619
0.015,0.612,1.493,1.493,222.822,230.184,185.630
0.016,0.644,1.499,1.499,222.815,230.211,185.644
0.018,0.671,1.501,1.501,222.808,230.234,185.656
0.019,0.689,1.497,1.497,222.802,230.250,185.664
0.020,0.697,1.487,1.487,222.796,230.255,185.663
0.021,0.715,1.470,1.470,222.787,230.246,185.650
0.022,0.755,1.447,1.447,222.776,230.221,185.621
0.023,0.822,1.421,1.421,222.762,230.176,185.572
0.025,0.923,1.394,1.394,222.742,230.109,185.500
0.026,1.060,1.368,1.368,222.717,230.016,185.402
0.027,1.238,1.346,1.347,222.686,229.896,185.275
0.028,1.448,1.331,1.331,222.648,229.753,185.126
0.029,1.682,1.324,1.324,222.605,229.593,184.960
0.030,1.932,1.329,1.329,222.556,229.422,184.785
0.032,2.188,1.345,1.345,222.502,229.245,184.608
0.033,2.442,1.371,1.371,222.443,229.067,184.436
0.034,2.687,1.403,1.403,222.381,228.894,184.275
0.035,2.914,1.438,1.438,222.314,228.731,184.132
0.036,3.114,1.472,1.472,222.244,228.584,184.014
0.037,3.283,1.502,1.502,222.172,228.459,183.928
0.039,3.416,1.524,1.524,222.097,228.360,183.881
0.040,3.519,1.536,1.535,222.019,228.292,183.876
0.041,3.614,1.533,1.533,221.940,228.252,183.909
0.042,3.720,1.515,1.515,221.858,228.235,183.976
0.043,3.845,1.485,1.485,221.775,228.239,184.069
0.044,3.989,1.446,1.446,221.690,228.260,184.183
0.046,4.149,1.400,1.400,221.603,228.294,184.312
0.047,4.319,1.350,1.350,221.515,228.337,184.451
0.048,4.495,1.299,1.299,221.425,228.386,184.594
0.049,4.670,1.249,1.250,221.335,228.437,184.736
0.050,4.840,1.204,1.204,221.243,228.486,184.869
0.051,4.998,1.166,1.165,221.150,228.531,184.989
0.053,5.142,1.135,1.134,221.056,228.567,185.092
0.054,5.273,1.111,1.110,220.962,228.597,185.179
0.055,5.392,1.094,1.093,220.869,228.620,185.251
0.056,5.502,1.084,1.082,220.778,228.637,185.309
0.057,5.603,1.080,1.078,220.689,228.650,185.355
0.058,5.697,1.082,1.081,220.603,228.658,185.392
0.060,5.783,1.090,1.090,220.522,228.664,185.419
0.061,5.862,1.104,1.105,220.445,228.667,185.439
0.062,5.935,1.123,1.125,220.374,228.669,185.454
0.063,6.000,1.146,1.150,220.310,228.670,185.464
0.064,6.057,1.172,1.177,220.253,228.672,185.471
0.065,6.107,1.199,1.205,220.203,228.675,185.478
0.067,6.151,1.225,1.232,220.160,228.678,185.483
0.068,6.191,1.251,1.257,220.121,228.683,185.487
0.069,6.228,1.273,1.278,220.084,228.689,185.490
0.070,6.265,1.292,1.294,220.048,228.695,185.493
0.071,6.302,1.306,1.303,220.012,228.703,185.495
0.073,6.342,1.314,1.305,219.973,228.711,185.497
0.074,6.386,1.317,1.302,219.930,228.721,185.499
0.075,6.436,1.316,1.296,219.881,228.731,185.502
0.076,6.494,1.312,1.288,219.824,228.742,185.505
0.077,6.561,1.305,1.280,219.758,228.754,185.509
0.078,6.638,1.296,1.273,219.682,228.767,185.514
0.080,6.723,1.285,1.271,219.599,228.778,185.520
0.081,6.812,1.274,1.273,219.510,228.786,185.530
0.082,6.905,1.263,1.282,219.418,228.790,185.543
0.083,6.999,1.253,1.296,219.326,228.787,185.560
0.084,7.094,1.243,1.314,219.234,228.776,185.583
0.085,7.188,1.235,1.335,219.147,228.755,185.612
0.087,7.282,1.227,1.357,219.067,228.723,185.648
0.088,7.378,1.221,1.379,218.994,228.677,185.691
0.089,7.479,1.217,1.398,218.933,228.616,185.744
0.090,7.590,1.215,1.414,218.885,228.538,185.806
0.091,7.713,1.216,1.425,218.851,228.444,185.877
0.092,7.850,1.219,1.430,218.830,228.334,185.956
0.094,7.998,1.225,1.430,218.819,228.213,186.041
0.095,8.156,1.234,1.428,218.816,228.082,186.130
0.096,8.321,1.245,1.423,218.821,227.945,186.220
0.097,8.488,1.259,1.418,218.829,227.804,186.311
0.098,8.656,1.275,1.414,218.841,227.662,186.399
0.099,8.821,1.294,1.411,218.853,227.522,186.484
0.101,8.978,1.316,1.413,218.865,227.386,186.563
0.102,9.126,1.340,1.418,218.873,227.256,186.633
0.103,9.260,1.367,1.429,218.876,227.137,186.694
0.104,9.379,1.394,1.443,218.873,227.029,186.744
0.105,9.485,1.422,1.459,218.865,226.932,186.785
0.106,9.578,1.451,1.477,218.853,226.845,186.818
0.108,9.659,1.478,1.496,218.837,226.769,186.844
0.109,9.731,1.503,1.514,218.820,226.703,186.864
0.110,9.792,1.526,1.531,218.802,226.647,186.879
0.111,9.844,1.546,1.546,218.783,226.600,186.892
0.112,9.887,1.561,1.557,218.766,226.561,186.903
0.113,9.922,1.574,1.565,218.751,226.532,186.913
0.115,9.949,1.582,1.572,218.739,226.510,186.924
0.116,9.970,1.588,1.576,218.731,226.496,186.937
0.117,9.988,1.591,1.580,218.727,226.490,186.953
0.118,10.008,1.592,1.583,218.726,226.490,186.974
0.119,10.034,1.590,1.586,218.727,226.496,186.999
0.120,10.068,1.587,1.590,218.729,226.508,187.030
0.122,10.109,1.582,1.595,218.729,226.524,187.067
0.123,10.158,1.577,1.602,218.728,226.545,187.113
0.124,10.217,1.571,1.610,218.722,226.569,187.166
0.125,10.286,1.565,1.619,218.713,226.596,187.229
0.126,10.366,1.559,1.629,218.697,226.625,187.302
0.127,10.459,1.556,1.640,218.674,226.656,187.386
0.129,10.565,1.554,1.652,218.642,226.687,187.482
0.130,10.683,1.555,1.664,218.602,226.720,187.589
0.131,10.813,1.559,1.677,218.554,226.752,187.704
0.132,10.949,1.567,1.690,218.501,226.784,187.826
0.133,11.090,1.579,1.703,218.445,226.815,187.951
0.135,11.232,1.593,1.715,218.386,226.846,188.077
0.136,11.372,1.608,1.726,218.326,226.875,188.200
0.137,11.507,1.625,1.735,218.268,226.902,188.319
0.138,11.634,1.641,1.742,218.212,226.926,188.431
0.139,11.750,1.657,1.747,218.161,226.949,188.532
0.140,11.852,1.670,1.749,218.115,226.968,188.621
0.142,11.936,1.681,1.747,218.078,226.984,188.694
0.143,12.001,1.689,1.742,218.048,226.996,188.751
0.144,12.049,1.694,1.733,218.026,227.006,188.793
0.145,12.083,1.696,1.723,218.011,227.012,188.822
0.146,12.102,1.695,1.712,218.003,227.017,188.839
0.147,12.110,1.693,1.701,217.999,227.020,188.845
0.149,12.113,1.689,1.691,218.000,227.021,188.842
0.150,12.125,1.685,1.683,218.005,227.022,188.832
0.151,12.143,1.679,1.678,218.014,227.021,188.815
0.152,12.167,1.674,1.676,218.024,227.021,188.794
0.153,12.195,1.668,1.678,218.037,227.020,188.769
0.154,12.225,1.662,1.683,218.050,227.020,188.743
0.156,12.254,1.657,1.690,218.064,227.021,188.716
0.157,12.281,1.652,1.698,218.075,227.022,188.692
0.158,12.301,1.648,1.706,218.082,227.023,188.673
0.159,12.314,1.644,1.713,218.083,227.024,188.661
0.160,12.321,1.641,1.718,218.077,227.024,188.658
0.161,12.339,1.638,1.720,218.061,227.023,188.667
0.163,12.375,1.637,1.718,218.033,227.021,188.689
0.164,12.432,1.637,1.714,217.992,227.017,188.729
0.165,12.512,1.640,1.708,217.936,227.011,188.786
0.166,12.620,1.646,1.704,217.863,227.003,188.865
0.167,12.758,1.657,1.702,217.771,226.992,188.967
0.168,12.924,1.673,1.705,217.662,226.979,189.091
0.170,13.112,1.695,1.714,217.538,226.964,189.232
0.171,13.316,1.724,1.732,217.403,226.948,189.384
0.172,13.529,1.761,1.760,217.262,226.932,189.543
0.173,13.744,1.806,1.798,217.118,226.916,189.703
0.174,13.957,1.858,1.846,216.975,226.900,189.859
0.175,14.159,1.912,1.899,216.837,226.887,190.006
0.177,14.345,1.969,1.955,216.707,226.876,190.139
0.178,14.509,2.024,2.012,216.590,226.867,190.253
0.179,14.644,2.077,2.067,216.488,226.863,190.342
0.180,14.746,2.124,2.118,216.406,226.862,190.402
0.181,14.815,2.163,2.161,216.345,226.866,190.434
0.182,14.859,2.193,2.196,216.302,226.872,190.442
0.184,14.888,2.213,2.219,216.275,226.879,190.434
0.185,14.912,2.224,2.234,216.263,226.887,190.414
0.186,14.938,2.228,2.242,216.264,226.892,190.389
0.187,14.965,2.225,2.242,216.275,226.895,190.364
0.188,14.992,2.217,2.238,216.294,226.893,190.346
0.189,15.020,2.207,2.229,216.320,226.886,190.339
0.191,15.055,2.193,2.217,216.350,226.871,190.351
0.192,15.108,2.179,2.204,216.382,226.849,190.386
0.193,15.188,2.166,2.190,216.415,226.816,190.451
0.194,15.295,2.153,2.176,216.447,226.775,190.545
0.195,15.426,2.141,2.162,216.478,226.726,190.662
0.196,15.574,2.131,2.149,216.508,226.672,190.797
0.198,15.734,2.122,2.137,216.535,226.616,190.944
0.199,15.900,2.114,2.126,216.560,226.559,191.098
0.200,16.067,2.109,2.117,216.582,226.504,191.254
0.201,16.228,2.106,2.109,216.600,226.452,191.405
0.202,16.377,2.105,2.104,216.614,226.405,191.547
0.204,16.510,2.107,2.101,216.624,226.367,191.673
0.205,16.619,2.110,2.100,216.629,226.338,191.779
0.206,16.701,2.114,2.101,216.628,226.322,191.858
0.207,16.755,2.118,2.103,216.623,226.316,191.912
0.208,16.787,2.122,2.106,216.615,226.319,191.943
0.209,16.805,2.124,2.110,216.606,226.328,191.956
0.211,16.821,2.124,2.114,216.596,226.341,191.953
0.212,16.841,2.121,2.118,216.588,226.354,191.940
0.213,16.865,2.115,2.122,216.584,226.365,191.919
0.214,16.890,2.106,2.125,216.584,226.371,191.895
0.215,16.916,2.094,2.127,216.591,226.370,191.870
0.216,16.943,2.079,2.127,216.605,226.359,191.850
0.218,16.979,2.063,2.125,216.629,226.336,191.837
0.219,17.031,2.047,2.121,216.664,226.297,191.835
0.220,17.100,2.030,2.115,216.708,226.245,191.845
0.221,17.185,2.014,2.105,216.759,226.181,191.868
0.222,17.281,1.998,2.093,216.813,226.109,191.902
0.223,17.386,1.985,2.076,216.867,226.031,191.947
0.225,17.496,1.972,2.057,216.918,225.951,192.002
0.226,17.608,1.960,2.034,216.963,225.871,192.068
0.227,17.721,1.947,2.008,216.998,225.795,192.143
0.228,17.834,1.934,1.981,217.022,225.725,192.228
0.229,17.945,1.919,1.951,217.030,225.665,192.322
0.230,18.059,1.901,1.920,217.020,225.616,192.423
0.232,18.178,1.881,1.887,216.988,225.582,192.533
0.233,18.307,1.857,1.854,216.936,225.563,192.649
0.234,18.445,1.829,1.820,216.868,225.556,192.769
0.235,18.590,1.799,1.787,216.787,225.558,192.891
0.236,18.741,1.768,1.755,216.698,225.568,193.011
0.237,18.893,1.738,1.726,216.603,225.584,193.129
0.239,19.041,1.709,1.700,216.507,225.602,193.241
0.240,19.183,1.684,1.677,216.414,225.620,193.346
0.241,19.313,1.663,1.660,216.326,225.637,193.440
0.242,19.426,1.649,1.648,216.249,225.650,193.522
0.243,19.519,1.641,1.642,216.185,225.656,193.589
0.244,19.588,1.639,1.642,216.138,225.654,193.640
0.246,19.636,1.642,1.645,216.107,225.645,193.675
0.247,19.669,1.646,1.650,216.089,225.631,193.699
0.248,19.693,1.651,1.654,216.081,225.615,193.715
0.249,19.712,1.652,1.655,216.081,225.600,193.727
0.250,19.729,1.650,1.651,216.085,225.588,193.739
0.251,19.745,1.641,1.641,216.090,225.583,193.753
0.253,19.767,1.623,1.623,216.093,225.588,193.774
0.254,19.802,1.595,1.594,216.092,225.604,193.806
0.255,19.857,1.560,1.559,216.083,225.634,193.851
0.256,19.939,1.519,1.518,216.063,225.682,193.913
0.257,20.051,1.477,1.476,216.029,225.750,193.997
0.258,20.192,1.434,1.434,215.983,225.835,194.099
0.260,20.356,1.395,1.395,215.927,225.935,194.216
0.261,20.538,1.362,1.361,215.862,226.046,194.345
0.262,20.731,1.337,1.337,215.791,226.165,194.480
0.263,20.931,1.323,1.323,215.717,226.287,194.619
0.264,21.130,1.321,1.322,215.641,226.409,194.758
0.265,21.325,1.329,1.330,215.565,226.528,194.893
0.267,21.509,1.345,1.345,215.493,226.640,195.019
0.268,21.676,1.366,1.366,215.426,226.741,195.133
0.269,21.820,1.391,1.391,215.366,226.829,195.231
0.270,21.938,1.418,1.418,215.315,226.900,195.310
0.271,22.029,1.444,1.444,215.274,226.954,195.370
0.273,22.098,1.468,1.468,215.241,226.996,195.414
0.274,22.149,1.488,1.488,215.216,227.028,195.445
0.275,22.185,1.503,1.503,215.198,227.054,195.464
0.276,22.212,1.514,1.514,215.186,227.075,195.474
0.277,22.233,1.521,1.521,215.179,227.095,195.478
0.278,22.255,1.525,1.525,215.176,227.117,195.478
0.280,22.282,1.526,1.526,215.177,227.144,195.477
0.281,22.317,1.524,1.524,215.180,227.178,195.476
0.282,22.363,1.520,1.520,215.186,227.224,195.479
0.283,22.422,1.514,1.514,215.191,227.282,195.488
0.284,22.493,1.506,1.507,215.196,227.351,195.503
0.285,22.570,1.498,1.498,215.195,227.425,195.524
0.287,22.650,1.490,1.490,215.186,227.500,195.551
0.288,22.731,1.482,1.482,215.167,227.572,195.585
0.289,22.813,1.475,1.475,215.133,227.634,195.624
0.290,22.897,1.470,1.470,215.083,227.684,195.670
0.291,22.990,1.468,1.468,215.012,227.715,195.722
0.292,23.100,1.469,1.469,214.919,227.724,195.779
0.294,23.237,1.475,1.475,214.799,227.705,195.843
0.295,23.408,1.484,1.484,214.651,227.654,195.913
0.296,23.622,1.497,1.497,214.471,227.568,195.988
0.297,23.872,1.514,1.514,214.264,227.451,196.068
0.298,24.153,1.533,1.533,214.035,227.310,196.150
0.299,24.455,1.554,1.554,213.791,227.152,196.232
0.301,24.769,1.577,1.577,213.538,226.985,196.313
0.302,25.087,1.601,1.601,213.281,226.815,196.390
0.303,25.399,1.626,1.626,213.026,226.650,196.462
0.304,25.696,1.652,1.652,212.779,226.497,196.526
0.305,25.971,1.677,1.677,212.547,226.363,196.581
0.306,26.213,1.704,1.704,212.334,226.254,196.625
0.308,26.417,1.730,1.730,212.148,226.180,196.656
0.309,26.578,1.758,1.758,211.992,226.143,196.672
0.310,26.704,1.786,1.786,211.865,226.142,196.676
0.311,26.807,1.815,1.815,211.766,226.171,196.669
0.312,26.899,1.845,1.845,211.692,226.223,196.655
0.313,26.989,1.875,1.875,211.639,226.293,196.637
0.315,27.080,1.907,1.907,211.605,226.375,196.617
0.316,27.171,1.938,1.938,211.587,226.463,196.598
0.317,27.260,1.969,1.969,211.583,226.550,196.582
0.318,27.342,1.997,1.997,211.590,226.631,196.573
0.319,27.413,2.023,2.023,211.605,226.701,196.573
0.320,27.470,2.044,2.044,211.626,226.752,196.585
0.322,27.516,2.062,2.062,211.649,226.781,196.610
0.323,27.562,2.073,2.073,211.674,226.787,196.649
0.324,27.621,2.079,2.079,211.698,226.771,196.700
0.325,27.696,2.078,2.078,211.720,226.734,196.762
0.326,27.789,2.071,2.071,211.738,226.676,196.833
0.327,27.899,2.059,2.059,211.750,226.600,196.911
0.329,28.026,2.041,2.041,211.754,226.506,196.997
0.330,28.169,2.019,2.020,211.749,226.395,197.087
0.331,28.328,1.994,1.994,211.733,226.268,197.181
0.332,28.502,1.964,1.964,211.704,226.127,197.277
0.333,28.690,1.932,1.932,211.661,225.971,197.375
0.335,28.893,1.897,1.897,211.602,225.803,197.472
0.336,29.108,1.862,1.861,211.530,225.625,197.569
0.337,29.332,1.826,1.826,211.446,225.441,197.665
0.338,29.562,1.793,1.793,211.354,225.254,197.761
0.339,29.794,1.763,1.763,211.256,225.066,197.856
0.340,30.024,1.738,1.738,211.155,224.882,197.951
0.342,30.249,1.719,1.719,211.053,224.705,198.045
0.343,30.466,1.708,1.708,210.952,224.537,198.138
0.344,30.670,1.707,1.707,210.856,224.383,198.231
0.345,30.859,1.715,1.715,210.767,224.244,198.322
0.346,31.028,1.732,1.732,210.687,224.125,198.413
0.347,31.178,1.755,1.756,210.619,224.028,198.503
0.349,31.308,1.783,1.784,210.562,223.951,198.591
0.350,31.421,1.816,1.817,210.514,223.892,198.676
0.351,31.520,1.851,1.852,210.474,223.850,198.756
0.352,31.606,1.886,1.887,210.442,223.823,198.831
0.353,31.680,1.922,1.922,210.417,223.808,198.899
0.354,31.744,1.955,1.955,210.396,223.804,198.960
0.356,31.799,1.986,1.984,210.380,223.809,199.012
0.357,31.844,2.013,2.010,210.366,223.820,199.053
0.358,31.880,2.036,2.033,210.355,223.836,199.084
0.359,31.908,2.055,2.051,210.343,223.855,199.102
0.360,31.931,2.069,2.065,210.332,223.874,199.107
0.361,31.953,2.077,2.074,210.322,223.892,199.103
0.363,31.973,2.080,2.077,210.313,223.907,199.091
0.364,31.992,2.075,2.075,210.307,223.916,199.076
0.365,32.008,2.064,2.068,210.304,223.917,199.060
0.366,32.024,2.047,2.055,210.306,223.909,199.047
0.367,32.047,2.027,2.040,210.314,223.888,199.039
0.368,32.084,2.003,2.021,210.328,223.854,199.040
0.370,32.140,1.979,2.002,210.349,223.804,199.052
0.371,32.220,1.954,1.983,210.380,223.735,199.079
0.372,32.328,1.931,1.965,210.419,223.646,199.125
0.373,32.464,1.912,1.949,210.468,223.536,199.190
0.374,32.625,1.896,1.937,210.526,223.410,199.272
0.375,32.805,1.886,1.929,210.590,223.272,199.368
0.377,32.997,1.879,1.924,210.658,223.128,199.474
0.378,33.195,1.876,1.920,210.728,222.983,199.589
0.379,33.393,1.874,1.918,210.800,222.841,199.707
0.380,33.585,1.874,1.917,210.869,222.708,199.827
0.381,33.765,1.873,1.914,210.936,222.589,199.945
0.382,33.928,1.872,1.910,210.997,222.489,200.057
0.384,34.068,1.869,1.903,211.051,222.412,200.161
0.385,34.181,1.863,1.894,211.097,222.365,200.253
0.386,34.269,1.855,1.881,211.132,222.349,200.332
0.387,34.343,1.846,1.869,211.158,222.359,200.401
0.388,34.414,1.839,1.857,211.176,222.390,200.463
0.389,34.488,1.834,1.848,211.187,222.434,200.521
0.391,34.567,1.833,1.842,211.193,222.487,200.579
0.392,34.650,1.837,1.843,211.195,222.542,200.641
0.393,34.735,1.848,1.850,211.194,222.593,200.710
0.394,34.824,1.867,1.867,211.191,222.633,200.789
0.395,34.920,1.895,1.893,211.188,222.658,200.882
0.396,35.031,1.929,1.926,211.185,222.660,200.992
0.398,35.164,1.969,1.966,211.185,222.635,201.123
0.399,35.328,2.012,2.009,211.187,222.578,201.276
0.400,35.517,2.057,2.055,211.191,222.494,201.446
0.401,35.727,2.102,2.100,211.196,222.390,201.628
0.402,35.950,2.145,2.144,211.200,222.270,201.816
0.404,36.180,2.184,2.184,211.203,222.140,202.005
0.405,36.408,2.217,2.218,211.203,222.005,202.190
0.406,36.628,2.245,2.246,211.199,221.871,202.365
0.407,36.833,2.268,2.268,211.190,221.744,202.524
0.408,37.014,2.286,2.287,211.176,221.629,202.663
0.409,37.164,2.302,2.302,211.154,221.531,202.775
0.411,37.278,2.315,2.315,211.124,221.456,202.856
0.412,37.357,2.327,2.327,211.086,221.406,202.904
0.413,37.410,2.339,2.339,211.044,221.379,202.923
0.414,37.453,2.351,2.351,211.003,221.370,202.921
0.415,37.495,2.366,2.365,210.965,221.375,202.903
0.416,37.537,2.381,2.381,210.936,221.389,202.876
0.418,37.576,2.397,2.397,210.920,221.410,202.847
0.419,37.610,2.414,2.413,210.920,221.432,202.821
0.420,37.643,2.430,2.430,210.941,221.451,202.804
0.421,37.691,2.446,2.445,210.987,221.464,202.804
0.422,37.769,2.460,2.460,211.062,221.466,202.826
0.423,37.889,2.473,2.473,211.170,221.454,202.877
0.425,38.055,2.483,2.483,211.312,221.425,202.958
0.426,38.260,2.491,2.491,211.481,221.381,203.066
0.427,38.495,2.497,2.497,211.670,221.326,203.194
0.428,38.750,2.500,2.500,211.871,221.263,203.336
0.429,39.016,2.501,2.502,212.079,221.193,203.488
0.430,39.284,2.501,2.501,212.285,221.120,203.643
0.432,39.544,2.498,2.498,212.482,221.048,203.796
0.433,39.787,2.493,2.493,212.664,220.977,203.941
0.434,40.003,2.487,2.487,212.823,220.912,204.072
0.435,40.183,2.479,2.479,212.952,220.854,204.184
0.436,40.318,2.470,2.470,213.044,220.808,204.270
0.437,40.405,2.460,2.460,213.097,220.773,204.330
0.439,40.453,2.452,2.452,213.118,220.750,204.366
0.440,40.474,2.445,2.445,213.114,220.736,204.382
0.441,40.495,2.440,2.440,213.094,220.731,204.382
0.442,40.528,2.438,2.438,213.064,220.733,204.370
0.443,40.566,2.440,2.440,213.032,220.741,204.350
0.444,40.603,2.448,2.448,213.006,220.753,204.326
0.446,40.635,2.460,2.460,212.993,220.769,204.302
0.447,40.663,2.477,2.477,213.001,220.786,204.282
0.448,40.706,2.497,2.497,213.038,220.805,204.270
0.449,40.781,2.518,2.518,213.111,220.822,204.269
0.450,40.894,2.541,2.541,213.222,220.838,204.282
0.451,41.040,2.563,2.563,213.366,220.852,204.306
0.453,41.214,2.583,2.583,213.536,220.864,204.339
0.454,41.409,2.599,2.599,213.727,220.873,204.380
0.455,41.618,2.612,2.612,213.931,220.879,204.426
0.456,41.835,2.620,2.620,214.142,220.882,204.475
0.457,42.053,2.624,2.624,214.354,220.880,204.525
0.458,42.266,2.627,2.627,214.561,220.875,204.574
0.460,42.467,2.628,2.628,214.757,220.865,204.620
0.461,42.650,2.630,2.630,214.935,220.850,204.660
0.462,42.809,2.634,2.634,215.089,220.830,204.692
0.463,42.940,2.641,2.641,215.215,220.803,204.717
0.464,43.047,2.652,2.652,215.316,220.769,204.732
0.465,43.136,2.669,2.669,215.392,220.725,204.738
0.467,43.212,2.691,2.691,215.444,220.669,204.736
0.468,43.289,2.719,2.719,215.475,220.599,204.725
0.469,43.376,2.751,2.751,215.485,220.515,204.705
0.470,43.482,2.788,2.788,215.476,220.413,204.677
0.471,43.612,2.829,2.829,215.450,220.292,204.639
0.473,43.766,2.873,2.873,215.407,220.151,204.593
0.474,43.949,2.921,2.921,215.349,219.987,204.538
0.475,44.160,2.972,2.972,215.278,219.799,204.475
0.476,44.397,3.025,3.025,215.195,219.588,204.403
0.477,44.655,3.078,3.078,215.104,219.360,204.326
