"T","Distance","Radius","FreeRadius","X","Y","Z"
0.000,0.000,1.074,1.074,217.533,230.861,247.314
0.001,0.073,1.101,1.101,217.484,230.904,247.345
0.003,0.144,1.127,1.127,217.436,230.947,247.375
0.004,0.214,1.151,1.151,217.387,230.989,247.403
0.006,0.282,1.172,1.172,217.338,231.030,247.427
0.007,0.347,1.190,1.190,217.289,231.067,247.446
0.009,0.408,1.204,1.204,217.240,231.103,247.459
0.010,0.467,1.212,1.212,217.191,231.134,247.464
0.011,0.523,1.214,1.214,217.142,231.162,247.461
0.013,0.579,1.210,1.210,217.093,231.185,247.448
0.014,0.637,1.202,1.202,217.044,231.204,247.424
0.016,0.696,1.190,1.190,216.997,231.222,247.394
0.017,0.756,1.176,1.176,216.951,231.243,247.361
0.019,0.814,1.159,1.159,216.910,231.271,247.331
0.020,0.872,1.142,1.142,216.873,231.310,247.309
0.021,0.936,1.124,1.124,216.842,231.365,247.299
0.023,1.015,1.108,1.108,216.820,231.441,247.307
0.024,1.120,1.093,1.093,216.806,231.540,247.336
0.026,1.259,1.081,1.081,216.802,231.668,247.393
0.027,1.441,1.073,1.073,216.809,231.827,247.480
0.029,1.661,1.069,1.069,216.828,232.013,247.595
0.030,1.910,1.071,1.071,216.858,232.218,247.733
0.031,2.179,1.079,1.079,216.898,232.435,247.888
0.033,2.460,1.093,1.093,216.947,232.656,248.055
0.034,2.744,1.113,1.113,217.006,232.872,248.228
0.036,3.022,1.139,1.139,217.074,233.078,248.403
0.037,3.286,1.169,1.169,217.151,233.264,248.575
0.039,3.528,1.204,1.204,217.235,233.423,248.736
0.040,3.743,1.243,1.243,217.326,233.548,248.884
0.041,3.931,1.286,1.286,217.423,233.640,249.017
0.043,4.097,1.330,1.330,217.522,233.701,249.135
0.044,4.246,1.373,1.373,217.620,233.736,249.242
0.046,4.380,1.412,1.412,217.715,233.748,249.336
0.047,4.503,1.445,1.445,217.803,233.740,249.421
0.049,4.615,1.469,1.469,217.883,233.716,249.496
0.050,4.717,1.481,1.481,217.950,233.679,249.564
0.052,4.809,1.480,1.480,218.002,233.633,249.624
0.053,4.892,1.467,1.467,218.036,233.581,249.679
0.054,4.965,1.444,1.444,218.054,233.528,249.727
0.056,5.027,1.415,1.415,218.060,233.480,249.765
0.057,5.074,1.382,1.382,218.056,233.442,249.792
0.059,5.102,1.351,1.351,218.047,233.419,249.806
0.060,5.114,1.322,1.322,218.036,233.417,249.804
0.062,5.147,1.301,1.301,218.027,233.441,249.783
0.063,5.217,1.287,1.287,218.023,233.497,249.742
0.064,5.330,1.280,1.280,218.027,233.590,249.678
0.066,5.492,1.280,1.280,218.045,233.725,249.590
0.067,5.700,1.287,1.287,218.074,233.899,249.479
0.069,5.942,1.300,1.300,218.112,234.101,249.351
0.070,6.206,1.319,1.319,218.158,234.321,249.213
0.072,6.481,1.343,1.343,218.207,234.550,249.070
0.073,6.754,1.372,1.372,218.258,234.778,248.927
0.074,7.014,1.403,1.403,218.307,234.993,248.791
0.076,7.248,1.435,1.435,218.352,235.187,248.667
0.077,7.445,1.467,1.467,218.390,235.349,248.561
0.079,7.593,1.495,1.495,218.418,235.469,248.478
0.080,7.692,1.519,1.519,218.437,235.547,248.421
0.082,7.748,1.538,1.538,218.447,235.588,248.385
0.083,7.769,1.549,1.549,218.453,235.600,248.369
0.084,7.780,1.555,1.555,218.455,235.589,248.368
0.086,7.809,1.554,1.554,218.455,235.563,248.380
0.087,7.851,1.548,1.548,218.457,235.527,248.402
0.089,7.899,1.537,1.537,218.462,235.489,248.432
0.090,7.948,1.521,1.521,218.473,235.455,248.465
0.092,7.993,1.501,1.501,218.491,235.432,248.499
0.093,8.035,1.477,1.477,218.517,235.423,248.530
0.094,8.076,1.450,1.450,218.551,235.426,248.553
0.096,8.120,1.420,1.420,218.593,235.438,248.563
0.097,8.172,1.389,1.389,218.640,235.457,248.554
0.099,8.239,1.356,1.356,218.694,235.481,248.521
0.100,8.328,1.323,1.323,218.752,235.507,248.459
0.102,8.446,1.289,1.289,218.815,235.534,248.363
0.103,8.600,1.257,1.257,218.881,235.560,248.227
0.104,8.794,1.227,1.227,218.950,235.581,248.047
0.106,9.028,1.200,1.200,219.022,235.597,247.824
0.107,9.292,1.178,1.178,219.099,235.608,247.573
0.109,9.571,1.163,1.163,219.182,235.613,247.306
0.110,9.854,1.155,1.155,219.273,235.613,247.038
0.112,10.129,1.155,1.155,219.372,235.607,246.782
0.113,10.383,1.165,1.165,219.482,235.595,246.552
0.114,10.610,1.182,1.182,219.604,235.578,246.363
0.116,10.803,1.204,1.204,219.740,235.556,246.227
0.117,10.970,1.230,1.230,219.890,235.528,246.158
0.119,11.138,1.257,1.257,220.054,235.495,246.161
0.120,11.326,1.283,1.283,220.227,235.459,246.224
0.122,11.537,1.307,1.307,220.404,235.421,246.334
0.123,11.765,1.328,1.328,220.578,235.384,246.476
0.124,12.001,1.346,1.346,220.745,235.349,246.639
0.126,12.233,1.360,1.360,220.899,235.318,246.809
0.127,12.446,1.372,1.372,221.035,235.293,246.973
0.129,12.629,1.382,1.382,221.146,235.275,247.116
0.130,12.767,1.390,1.390,221.229,235.267,247.226
0.132,12.854,1.396,1.396,221.280,235.268,247.297
0.133,12.899,1.401,1.401,221.306,235.275,247.334
0.134,12.914,1.405,1.405,221.313,235.282,247.344
0.136,12.923,1.409,1.409,221.310,235.286,247.337
0.137,12.944,1.412,1.412,221.302,235.280,247.319
0.139,12.971,1.414,1.414,221.297,235.262,247.299
0.140,13.011,1.417,1.417,221.300,235.226,247.284
0.142,13.073,1.420,1.420,221.321,235.167,247.283
0.143,13.171,1.424,1.424,221.364,235.082,247.302
0.144,13.313,1.429,1.429,221.435,234.967,247.347
0.146,13.491,1.437,1.437,221.528,234.830,247.413
0.147,13.696,1.447,1.447,221.639,234.678,247.493
0.149,13.916,1.461,1.461,221.761,234.517,247.581
0.150,14.140,1.479,1.479,221.888,234.355,247.671
0.152,14.358,1.502,1.502,222.015,234.200,247.756
0.153,14.559,1.530,1.530,222.137,234.058,247.830
0.155,14.732,1.561,1.561,222.247,233.937,247.887
0.156,14.868,1.592,1.592,222.340,233.844,247.920
0.157,14.963,1.620,1.620,222.412,233.784,247.926
0.159,15.030,1.643,1.643,222.468,233.751,247.908
0.160,15.087,1.658,1.658,222.512,233.739,247.874
0.162,15.146,1.661,1.661,222.550,233.740,247.828
0.163,15.209,1.653,1.653,222.587,233.749,247.778
0.165,15.275,1.637,1.637,222.628,233.758,247.728
0.166,15.341,1.619,1.619,222.679,233.760,247.685
0.167,15.414,1.604,1.604,222.745,233.748,247.655
0.169,15.506,1.599,1.599,222.830,233.717,247.645
0.170,15.631,1.608,1.608,222.940,233.659,247.657
0.172,15.789,1.638,1.638,223.073,233.581,247.691
0.173,15.974,1.693,1.693,223.225,233.486,247.741
0.175,16.182,1.770,1.770,223.393,233.382,247.804
0.176,16.405,1.862,1.862,223.574,233.273,247.874
0.177,16.636,1.966,1.966,223.766,233.166,247.948
0.179,16.870,2.076,2.076,223.964,233.066,248.021
0.180,17.101,2.187,2.187,224.167,232.979,248.090
0.182,17.323,2.294,2.294,224.370,232.912,248.149
0.183,17.534,2.392,2.392,224.571,232.867,248.194
0.185,17.735,2.479,2.479,224.768,232.845,248.227
0.186,17.927,2.554,2.554,224.959,232.839,248.247
0.187,18.109,2.617,2.617,225.141,232.848,248.255
0.189,18.282,2.665,2.665,225.312,232.866,248.253
0.190,18.443,2.698,2.698,225.471,232.889,248.242
0.192,18.590,2.715,2.715,225.615,232.913,248.221
0.193,18.723,2.715,2.715,225.743,232.935,248.192
0.195,18.838,2.701,2.701,225.851,232.951,248.157
0.196,18.936,2.676,2.676,225.939,232.956,248.115
0.197,19.020,2.646,2.646,226.009,232.951,248.068
0.199,19.096,2.613,2.613,226.063,232.936,248.016
0.200,19.167,2.582,2.582,226.104,232.914,247.962
0.202,19.239,2.558,2.558,226.135,232.886,247.905
0.203,19.310,2.542,2.542,226.160,232.852,247.846
0.205,19.383,2.536,2.536,226.181,232.814,247.787
0.206,19.457,2.537,2.537,226.202,232.774,247.729
0.207,19.532,2.542,2.542,226.224,232.732,247.672
0.209,19.606,2.549,2.549,226.252,232.690,247.618
0.210,19.680,2.555,2.555,226.286,232.648,247.566
0.212,19.756,2.559,2.559,226.324,232.607,247.516
0.213,19.831,2.559,2.559,226.366,232.565,247.468
0.215,19.907,2.554,2.554,226.410,232.525,247.422
0.216,19.984,2.545,2.545,226.457,232.484,247.377
0.217,20.060,2.533,2.533,226.505,232.445,247.333
0.219,20.135,2.520,2.520,226.552,232.406,247.290
0.220,20.209,2.506,2.506,226.600,232.367,247.247
0.222,20.282,2.493,2.493,226.646,232.330,247.205
0.223,20.355,2.481,2.481,226.692,232.293,247.162
0.225,20.427,2.470,2.470,226.740,232.260,247.120
0.226,20.503,2.461,2.461,226.794,232.230,247.076
0.227,20.582,2.453,2.453,226.855,232.205,247.032
0.229,20.669,2.445,2.445,226.926,232.186,246.986
0.230,20.767,2.436,2.436,227.010,232.173,246.939
0.232,20.878,2.428,2.428,227.110,232.168,246.890
0.233,21.006,2.418,2.418,227.228,232.173,246.839
0.235,21.155,2.408,2.408,227.366,232.187,246.786
0.236,21.321,2.397,2.397,227.521,232.211,246.731
0.237,21.501,2.386,2.386,227.690,232.242,246.676
0.239,21.688,2.375,2.375,227.865,232.278,246.622
0.240,21.875,2.364,2.364,228.041,232.318,246.572
0.242,22.057,2.354,2.354,228.212,232.360,246.526
0.243,22.228,2.346,2.346,228.372,232.402,246.486
0.245,22.381,2.339,2.339,228.517,232.442,246.453
0.246,22.511,2.335,2.335,228.639,232.478,246.429
0.247,22.611,2.335,2.335,228.734,232.508,246.416
0.249,22.682,2.340,2.340,228.800,232.531,246.412
0.250,22.727,2.351,2.351,228.842,232.548,246.412
0.252,22.751,2.369,2.369,228.865,232.557,246.414
0.253,22.758,2.395,2.395,228.871,232.559,246.412
0.255,22.770,2.427,2.427,228.866,232.554,246.403
0.256,22.797,2.464,2.464,228.853,232.541,246.382
0.258,22.842,2.502,2.502,228.836,232.521,246.346
0.259,22.907,2.539,2.539,228.821,232.493,246.290
0.260,22.994,2.570,2.570,228.810,232.457,246.210
0.262,23.106,2.594,2.594,228.806,232.415,246.107
0.263,23.237,2.607,2.607,228.808,232.368,245.985
0.265,23.381,2.609,2.609,228.815,232.318,245.849
0.266,23.534,2.602,2.602,228.826,232.268,245.706
0.268,23.689,2.589,2.589,228.839,232.221,245.558
0.269,23.842,2.572,2.572,228.856,232.177,245.413
0.270,23.986,2.554,2.554,228.873,232.141,245.275
0.272,24.116,2.537,2.537,228.891,232.113,245.149
0.273,24.228,2.524,2.524,228.908,232.096,245.040
0.275,24.319,2.515,2.515,228.924,232.091,244.950
0.276,24.393,2.511,2.511,228.939,232.094,244.878
0.278,24.451,2.509,2.509,228.953,232.104,244.822
0.279,24.497,2.510,2.510,228.966,232.116,244.780
0.280,24.533,2.512,2.512,228.980,232.129,244.749
0.282,24.559,2.514,2.514,228.993,232.139,244.729
0.283,24.579,2.514,2.514,229.005,232.145,244.715
0.285,24.594,2.514,2.514,229.018,232.142,244.708
0.286,24.613,2.511,2.511,229.032,232.128,244.704
0.288,24.642,2.507,2.507,229.045,232.102,244.702
0.289,24.679,2.502,2.502,229.059,232.068,244.700
0.290,24.722,2.496,2.496,229.073,232.027,244.697
0.292,24.769,2.488,2.488,229.087,231.983,244.690
0.293,24.817,2.479,2.479,229.101,231.939,244.678
0.295,24.865,2.469,2.469,229.115,231.897,244.659
0.296,24.912,2.457,2.457,229.128,231.861,244.632
0.298,24.960,2.443,2.443,229.141,231.834,244.595
0.299,25.013,2.428,2.428,229.153,231.817,244.547
0.300,25.075,2.409,2.409,229.165,231.812,244.485
0.302,25.147,2.389,2.389,229.175,231.814,244.414
0.303,25.228,2.365,2.365,229.183,231.816,244.334
0.305,25.314,2.338,2.338,229.189,231.812,244.248
0.306,25.405,2.308,2.308,229.193,231.797,244.159
0.308,25.501,2.275,2.275,229.192,231.764,244.068
0.309,25.608,2.239,2.239,229.188,231.707,243.977
0.310,25.731,2.199,2.199,229.180,231.621,243.890
0.312,25.879,2.156,2.156,229.167,231.499,243.807
0.313,26.058,2.110,2.110,229.149,231.338,243.731
0.315,26.265,2.061,2.061,229.128,231.144,243.660
0.316,26.497,2.010,2.010,229.108,230.924,243.593
0.318,26.745,1.961,1.961,229.091,230.685,243.526
0.319,27.006,1.914,1.914,229.080,230.434,243.459
0.320,27.271,1.872,1.872,229.077,230.177,243.391
0.322,27.537,1.837,1.837,229.085,229.922,243.318
0.323,27.796,1.811,1.811,229.107,229.676,243.239
0.325,28.045,1.794,1.794,229.145,229.445,243.153
0.326,28.282,1.786,1.786,229.200,229.236,243.059
0.328,28.508,1.783,1.783,229.272,229.045,242.959
0.329,28.727,1.786,1.786,229.355,228.871,242.857
0.330,28.938,1.790,1.790,229.448,228.711,242.756
0.332,29.141,1.794,1.794,229.547,228.562,242.660
0.333,29.335,1.796,1.796,229.649,228.421,242.572
0.335,29.520,1.795,1.795,229.750,228.286,242.496
0.336,29.695,1.792,1.792,229.847,228.154,242.435
0.338,29.861,1.790,1.790,229.938,228.022,242.392
0.339,30.019,1.790,1.790,230.019,227.888,242.370
0.340,30.171,1.797,1.797,230.091,227.754,242.366
0.342,30.317,1.811,1.811,230.153,227.623,242.378
0.343,30.456,1.835,1.835,230.206,227.496,242.402
0.345,30.587,1.871,1.871,230.249,227.377,242.433
0.346,30.707,1.917,1.917,230.285,227.268,242.470
0.348,30.814,1.969,1.969,230.311,227.172,242.508
0.349,30.904,2.023,2.023,230.330,227.091,242.544
0.351,30.975,2.076,2.076,230.341,227.028,242.574
0.352,31.024,2.124,2.124,230.344,226.985,242.596
0.353,31.054,2.165,2.165,230.342,226.959,242.611
0.355,31.070,2.194,2.194,230.337,226.947,242.619
0.356,31.078,2.212,2.212,230.329,226.946,242.624
0.358,31.088,2.221,2.221,230.322,226.952,242.626
0.359,31.099,2.221,2.221,230.318,226.963,242.628
0.361,31.111,2.213,2.213,230.318,226.974,242.631
0.362,31.123,2.199,2.199,230.324,226.982,242.637
0.363,31.142,2.179,2.179,230.339,226.984,242.648
0.365,31.174,2.155,2.155,230.365,226.977,242.666
0.366,31.219,2.127,2.127,230.399,226.961,242.691
0.368,31.275,2.098,2.098,230.441,226.938,242.720
0.369,31.339,2.067,2.067,230.486,226.910,242.755
0.371,31.408,2.035,2.035,230.534,226.878,242.792
0.372,31.479,2.005,2.005,230.583,226.844,242.832
0.373,31.549,1.976,1.976,230.628,226.811,242.874
0.375,31.616,1.949,1.949,230.670,226.779,242.916
0.376,31.678,1.925,1.925,230.704,226.750,242.958
0.378,31.731,1.904,1.904,230.729,226.726,242.999
0.379,31.777,1.886,1.886,230.747,226.708,243.037
0.381,31.818,1.871,1.871,230.758,226.694,243.073
0.382,31.854,1.859,1.859,230.767,226.684,243.107
0.383,31.886,1.849,1.849,230.774,226.678,243.137
0.385,31.914,1.843,1.843,230.783,226.674,243.165
0.386,31.941,1.839,1.839,230.796,226.673,243.188
0.388,31.968,1.836,1.836,230.814,226.673,243.207
0.389,31.998,1.833,1.833,230.841,226.674,243.222
0.391,32.037,1.828,1.828,230.879,226.676,243.232
0.392,32.086,1.822,1.822,230.928,226.677,243.238
0.393,32.145,1.813,1.813,230.986,226.676,243.242
0.395,32.213,1.799,1.799,231.054,226.674,243.245
0.396,32.289,1.782,1.782,231.129,226.667,243.250
0.398,32.372,1.760,1.760,231.212,226.657,243.258
0.399,32.463,1.734,1.734,231.300,226.641,243.271
0.401,32.561,1.705,1.705,231.394,226.619,243.291
0.402,32.667,1.674,1.674,231.492,226.590,243.318
0.403,32.781,1.640,1.640,231.593,226.552,243.356
0.405,32.904,1.604,1.604,231.697,226.507,243.403
0.406,33.036,1.567,1.567,231.805,226.454,243.458
0.408,33.176,1.531,1.531,231.917,226.395,243.518
0.409,33.324,1.498,1.498,232.034,226.331,243.581
0.411,33.478,1.468,1.468,232.156,226.262,243.645
0.412,33.638,1.444,1.444,232.284,226.189,243.709
0.413,33.804,1.428,1.428,232.419,226.114,243.769
0.415,33.975,1.420,1.420,232.561,226.037,243.824
0.416,34.150,1.421,1.421,232.710,225.958,243.872
0.418,34.329,1.430,1.430,232.866,225.880,243.912
0.419,34.509,1.445,1.445,233.024,225.802,243.945
0.421,34.685,1.465,1.465,233.181,225.726,243.973
0.422,34.856,1.488,1.488,233.334,225.653,243.996
0.423,35.017,1.513,1.513,233.477,225.584,244.015
0.425,35.165,1.539,1.539,233.609,225.519,244.032
0.426,35.296,1.565,1.565,233.726,225.460,244.048
0.428,35.408,1.589,1.589,233.822,225.407,244.063
0.429,35.496,1.612,1.612,233.896,225.361,244.079
0.431,35.561,1.632,1.632,233.947,225.323,244.096
0.432,35.608,1.648,1.649,233.977,225.292,244.114
0.433,35.642,1.661,1.661,233.991,225.267,244.132
0.435,35.669,1.669,1.669,233.992,225.248,244.150
0.436,35.694,1.672,1.672,233.984,225.233,244.168
0.438,35.719,1.671,1.671,233.969,225.221,244.185
0.439,35.743,1.666,1.666,233.952,225.213,244.200
0.441,35.766,1.659,1.659,233.936,225.207,244.214
0.442,35.783,1.650,1.650,233.924,225.202,244.226
0.443,35.796,1.640,1.640,233.919,225.197,244.237
0.445,35.807,1.629,1.629,233.919,225.189,244.246
0.446,35.825,1.618,1.618,233.925,225.176,244.254
0.448,35.851,1.607,1.608,233.935,225.153,244.263
0.449,35.889,1.597,1.598,233.948,225.119,244.274
0.451,35.942,1.587,1.588,233.964,225.070,244.287
0.452,36.013,1.579,1.580,233.982,225.004,244.303
0.454,36.104,1.571,1.571,234.001,224.917,244.322
0.455,36.218,1.565,1.564,234.020,224.807,244.347
0.456,36.355,1.560,1.558,234.041,224.674,244.377
0.458,36.509,1.556,1.554,234.067,224.527,244.411
0.459,36.670,1.555,1.552,234.102,224.375,244.451
0.461,36.834,1.555,1.552,234.150,224.225,244.496
0.462,36.995,1.558,1.555,234.216,224.086,244.545
0.464,37.152,1.563,1.561,234.303,223.967,244.599
0.465,37.308,1.571,1.571,234.415,223.877,244.658
0.466,37.472,1.581,1.585,234.557,223.824,244.721
0.468,37.659,1.593,1.602,234.733,223.816,244.787
0.469,37.884,1.608,1.620,234.942,223.857,244.857
0.471,38.141,1.626,1.640,235.178,223.932,244.928
0.472,38.419,1.646,1.658,235.430,224.026,244.995
0.474,38.705,1.668,1.676,235.691,224.124,245.058
0.475,38.985,1.693,1.691,235.952,224.211,245.111
0.476,39.246,1.720,1.704,236.203,224.272,245.154
0.478,39.481,1.750,1.719,236.435,224.292,245.181
0.479,39.689,1.786,1.741,236.640,224.255,245.192
0.481,39.890,1.828,1.776,236.808,224.146,245.181
0.482,40.119,1.877,1.829,236.935,223.958,245.150
0.484,40.395,1.935,1.904,237.026,223.702,245.103
0.485,40.713,2.002,2.006,237.088,223.395,245.047
0.486,41.061,2.081,2.138,237.130,223.054,244.989
0.488,41.426,2.167,2.291,237.159,222.694,244.935
0.489,41.791,2.258,2.454,237.182,222.332,244.893
0.491,42.141,2.352,2.618,237.207,221.984,244.869
0.492,42.461,2.445,2.772,237.242,221.666,244.869
0.494,42.740,2.535,2.906,237.293,221.394,244.901
0.495,42.976,2.619,3.010,237.367,221.181,244.969
0.496,43.184,2.695,3.076,237.460,221.022,245.066
0.498,43.379,2.761,3.108,237.567,220.911,245.186
0.499,43.569,2.818,3.114,237.683,220.840,245.319
0.501,43.757,2.865,3.099,237.802,220.804,245.459
0.502,43.939,2.902,3.070,237.920,220.794,245.598
0.504,44.110,2.929,3.034,238.031,220.804,245.727
0.505,44.262,2.944,2.997,238.131,220.828,245.839
0.506,44.386,2.949,2.965,238.214,220.857,245.927
0.508,44.475,2.945,2.939,238.277,220.886,245.984
0.509,44.535,2.934,2.918,238.322,220.911,246.014
0.511,44.576,2.920,2.901,238.357,220.928,246.024
0.512,44.606,2.903,2.889,238.387,220.935,246.020
0.514,44.639,2.888,2.881,238.417,220.928,246.010
0.515,44.684,2.876,2.876,238.453,220.904,245.998
0.516,44.749,2.870,2.874,238.501,220.860,245.993
0.518,44.843,2.871,2.877,238.566,220.793,246.000
0.519,44.974,2.879,2.886,238.655,220.700,246.025
0.521,45.149,2.897,2.903,238.771,220.578,246.075
0.522,45.363,2.925,2.929,238.912,220.433,246.146
0.524,45.607,2.964,2.966,239.073,220.272,246.232
0.525,45.870,3.015,3.015,239.249,220.101,246.327
0.526,46.143,3.079,3.078,239.435,219.928,246.426
0.528,46.415,3.153,3.151,239.626,219.760,246.522
0.529,46.677,3.233,3.231,239.817,219.604,246.610
0.531,46.919,3.316,3.314,240.003,219.468,246.684
0.532,47.134,3.397,3.396,240.179,219.358,246.738
0.534,47.315,3.472,3.471,240.341,219.281,246.768
0.535,47.468,3.538,3.538,240.487,219.235,246.773
0.536,47.601,3.591,3.591,240.618,219.215,246.760
0.538,47.721,3.631,3.631,240.734,219.215,246.732
0.539,47.832,3.660,3.661,240.837,219.232,246.694
0.541,47.935,3.681,3.682,240.926,219.260,246.649
0.542,48.031,3.696,3.696,241.002,219.294,246.602
0.544,48.116,3.705,3.706,241.065,219.329,246.558
0.545,48.186,3.713,3.713,241.117,219.360,246.521
0.546,48.240,3.720,3.720,241.158,219.382,246.494
0.548,48.276,3.726,3.726,241.188,219.395,246.478
0.549,48.298,3.732,3.732,241.207,219.401,246.471
0.551,48.307,3.736,3.736,241.217,219.400,246.472
0.552,48.315,3.738,3.738,241.218,219.396,246.477
0.554,48.328,3.737,3.737,241.210,219.389,246.485
0.555,48.348,3.733,3.733,241.195,219.380,246.495
0.557,48.374,3.725,3.725,241.172,219.373,246.504
0.558,48.404,3.713,3.713,241.143,219.368,246.511
0.559,48.440,3.700,3.700,241.107,219.367,246.513
0.561,48.479,3.687,3.687,241.068,219.369,246.511
0.562,48.517,3.676,3.676,241.031,219.374,246.506
0.564,48.549,3.669,3.669,241.000,219.380,246.500
0.565,48.571,3.667,3.667,240.979,219.385,246.495
0.567,48.578,3.673,3.673,240.974,219.389,246.491
0.568,48.592,3.685,3.685,240.988,219.389,246.491
0.569,48.631,3.703,3.703,241.026,219.384,246.495
0.571,48.700,3.725,3.725,241.093,219.374,246.506
0.572,48.803,3.750,3.750,241.193,219.356,246.524
0.574,48.938,3.777,3.777,241.323,219.331,246.550
0.575,49.096,3.804,3.804,241.475,219.300,246.581
0.577,49.270,3.829,3.829,241.642,219.265,246.615
0.578,49.451,3.853,3.853,241.816,219.228,246.650
0.579,49.630,3.875,3.875,241.987,219.189,246.684
0.581,49.799,3.895,3.895,242.149,219.151,246.716
0.582,49.950,3.912,3.912,242.293,219.116,246.742
