"T","Distance","Radius","FreeRadius","X","Y","Z"
0.000,0.000,1.074,1.074,217.533,230.861,247.314
0.002,0.057,1.094,1.094,217.485,230.884,247.334
0.004,0.114,1.115,1.115,217.437,230.907,247.354
0.006,0.170,1.134,1.134,217.390,230.931,247.373
0.008,0.225,1.153,1.153,217.345,230.955,247.392
0.010,0.278,1.171,1.171,217.301,230.980,247.408
0.012,0.329,1.187,1.187,217.260,231.006,247.422
0.014,0.377,1.200,1.200,217.221,231.033,247.434
0.017,0.424,1.211,1.211,217.186,231.062,247.444
0.019,0.468,1.218,1.218,217.154,231.093,247.450
0.021,0.510,1.221,1.221,217.127,231.125,247.452
0.023,0.552,1.219,1.219,217.104,231.159,247.451
0.025,0.592,1.212,1.212,217.086,231.195,247.445
0.027,0.634,1.200,1.200,217.073,231.234,247.434
0.029,0.678,1.182,1.182,217.062,231.273,247.420
0.031,0.722,1.160,1.160,217.051,231.313,247.404
0.033,0.766,1.135,1.135,217.036,231.351,247.386
0.035,0.812,1.114,1.114,217.016,231.387,247.367
0.037,0.859,1.102,1.102,216.987,231.419,247.349
0.039,0.911,1.105,1.105,216.947,231.447,247.332
0.041,0.971,1.129,1.129,216.892,231.470,247.318
0.043,1.045,1.173,1.173,216.821,231.485,247.307
0.046,1.136,1.226,1.226,216.731,231.493,247.300
0.048,1.248,1.277,1.277,216.619,231.492,247.299
0.050,1.385,1.317,1.317,216.482,231.481,247.303
0.052,1.548,1.335,1.335,216.321,231.460,247.314
0.054,1.731,1.336,1.336,216.141,231.431,247.331
0.056,1.931,1.332,1.332,215.945,231.394,247.350
0.058,2.143,1.337,1.337,215.739,231.353,247.373
0.060,2.361,1.365,1.365,215.527,231.308,247.397
0.062,2.581,1.426,1.426,215.313,231.260,247.421
0.064,2.798,1.513,1.513,215.103,231.213,247.444
0.066,3.007,1.604,1.604,214.900,231.166,247.465
0.068,3.203,1.680,1.680,214.710,231.122,247.483
0.070,3.382,1.720,1.720,214.536,231.083,247.496
0.072,3.538,1.708,1.708,214.384,231.049,247.503
0.075,3.667,1.654,1.654,214.257,231.022,247.502
0.077,3.770,1.577,1.577,214.156,231.003,247.495
0.079,3.851,1.496,1.496,214.078,230.991,247.479
0.081,3.914,1.432,1.432,214.020,230.985,247.456
0.083,3.966,1.400,1.400,213.978,230.984,247.425
0.085,4.014,1.399,1.399,213.950,230.989,247.387
0.087,4.064,1.423,1.423,213.934,230.997,247.340
0.089,4.121,1.468,1.468,213.925,231.009,247.285
0.091,4.186,1.528,1.528,213.922,231.024,247.222
0.093,4.259,1.597,1.597,213.921,231.041,247.151
0.095,4.340,1.669,1.669,213.920,231.059,247.072
0.097,4.430,1.736,1.736,213.915,231.079,246.984
0.099,4.528,1.793,1.793,213.904,231.098,246.889
0.101,4.634,1.832,1.832,213.887,231.118,246.786
0.104,4.745,1.851,1.851,213.865,231.137,246.679
0.106,4.859,1.857,1.857,213.839,231.156,246.569
0.108,4.976,1.858,1.858,213.809,231.175,246.459
0.110,5.091,1.862,1.862,213.776,231.193,246.349
0.112,5.205,1.876,1.876,213.741,231.210,246.243
0.114,5.314,1.903,1.903,213.704,231.226,246.141
0.116,5.416,1.936,1.936,213.667,231.241,246.047
0.118,5.510,1.969,1.969,213.631,231.254,245.961
0.120,5.594,1.993,1.993,213.595,231.266,245.887
0.122,5.665,2.003,2.003,213.561,231.277,245.825
0.124,5.722,1.997,1.997,213.530,231.286,245.777
0.126,5.768,1.979,1.979,213.502,231.293,245.742
0.128,5.803,1.956,1.956,213.478,231.300,245.717
0.130,5.830,1.932,1.932,213.459,231.307,245.701
0.133,5.849,1.913,1.913,213.444,231.314,245.691
0.135,5.863,1.900,1.900,213.434,231.322,245.686
0.137,5.873,1.890,1.890,213.431,231.332,245.683
0.139,5.885,1.882,1.882,213.434,231.343,245.681
0.141,5.903,1.873,1.873,213.444,231.357,245.678
0.143,5.929,1.860,1.860,213.462,231.375,245.672
0.145,5.964,1.843,1.843,213.489,231.395,245.660
0.147,6.011,1.824,1.824,213.524,231.420,245.641
0.149,6.070,1.802,1.802,213.567,231.449,245.614
0.151,6.140,1.778,1.778,213.618,231.481,245.578
0.153,6.220,1.753,1.753,213.674,231.518,245.534
0.155,6.309,1.727,1.727,213.734,231.557,245.481
0.157,6.405,1.701,1.701,213.796,231.599,245.421
0.159,6.507,1.676,1.676,213.858,231.643,245.353
0.161,6.615,1.650,1.650,213.919,231.689,245.276
0.164,6.728,1.626,1.626,213.978,231.736,245.192
0.166,6.845,1.603,1.603,214.032,231.784,245.101
0.168,6.965,1.580,1.580,214.080,231.833,245.001
0.170,7.090,1.560,1.560,214.120,231.882,244.895
0.172,7.217,1.540,1.540,214.150,231.931,244.781
0.174,7.349,1.523,1.523,214.172,231.979,244.660
0.176,7.483,1.510,1.510,214.185,232.027,244.535
0.178,7.621,1.502,1.502,214.192,232.074,244.406
0.180,7.759,1.501,1.501,214.195,232.120,244.276
0.182,7.897,1.508,1.508,214.194,232.165,244.146
0.184,8.033,1.525,1.525,214.191,232.208,244.016
0.186,8.166,1.549,1.549,214.188,232.251,243.890
0.188,8.295,1.576,1.576,214.186,232.292,243.769
0.190,8.417,1.606,1.606,214.186,232.332,243.653
0.193,8.531,1.634,1.634,214.191,232.370,243.546
0.195,8.636,1.659,1.659,214.202,232.406,243.447
0.197,8.732,1.681,1.681,214.220,232.440,243.359
0.199,8.819,1.698,1.698,214.243,232.472,243.282
0.201,8.900,1.710,1.710,214.271,232.501,243.212
0.203,8.974,1.716,1.716,214.300,232.527,243.149
0.205,9.042,1.717,1.717,214.328,232.549,243.091
0.207,9.106,1.719,1.719,214.354,232.568,243.036
0.209,9.165,1.726,1.726,214.375,232.581,242.982
0.211,9.221,1.741,1.741,214.389,232.590,242.929
0.213,9.277,1.768,1.768,214.394,232.593,242.873
0.215,9.337,1.808,1.808,214.388,232.591,242.814
0.217,9.405,1.854,1.854,214.368,232.582,242.749
0.219,9.486,1.901,1.901,214.333,232.566,242.678
0.222,9.584,1.944,1.944,214.281,232.543,242.598
0.224,9.696,1.977,1.977,214.216,232.517,242.511
0.226,9.817,2.004,2.004,214.143,232.489,242.418
0.228,9.943,2.033,2.033,214.067,232.463,242.320
0.230,10.069,2.071,2.071,213.994,232.443,242.220
0.232,10.191,2.127,2.127,213.928,232.432,242.118
0.234,10.307,2.205,2.205,213.874,232.432,242.016
0.236,10.416,2.298,2.298,213.837,232.447,241.915
0.238,10.520,2.389,2.389,213.823,232.480,241.816
0.240,10.630,2.463,2.463,213.836,232.535,241.722
0.242,10.757,2.503,2.503,213.881,232.614,241.633
0.244,10.915,2.499,2.499,213.964,232.721,241.552
0.246,11.112,2.462,2.462,214.087,232.857,241.478
0.248,11.346,2.412,2.412,214.243,233.017,241.412
0.251,11.610,2.369,2.369,214.428,233.195,241.352
0.253,11.897,2.354,2.354,214.636,233.387,241.298
0.255,12.202,2.379,2.379,214.861,233.587,241.251
0.257,12.516,2.435,2.435,215.097,233.790,241.208
0.259,12.833,2.505,2.505,215.338,233.991,241.169
0.261,13.143,2.574,2.574,215.578,234.185,241.134
0.263,13.440,2.627,2.627,215.811,234.366,241.103
0.265,13.716,2.653,2.653,216.032,234.529,241.073
0.267,13.964,2.657,2.657,216.235,234.668,241.046
0.269,14.175,2.648,2.648,216.413,234.780,241.020
0.271,14.350,2.632,2.632,216.565,234.861,240.995
0.273,14.494,2.617,2.617,216.695,234.916,240.969
0.275,14.612,2.608,2.608,216.807,234.948,240.942
0.277,14.713,2.608,2.608,216.902,234.960,240.914
0.280,14.803,2.618,2.618,216.987,234.955,240.882
0.282,14.888,2.640,2.640,217.063,234.938,240.848
0.284,14.975,2.675,2.675,217.135,234.911,240.809
0.286,15.065,2.722,2.722,217.206,234.877,240.765
0.288,15.161,2.772,2.772,217.280,234.841,240.715
0.290,15.266,2.817,2.817,217.361,234.806,240.658
0.292,15.382,2.849,2.849,217.452,234.775,240.594
0.294,15.511,2.859,2.859,217.557,234.751,240.521
0.296,15.654,2.850,2.850,217.673,234.736,240.441
0.298,15.807,2.832,2.832,217.798,234.729,240.353
0.300,15.967,2.815,2.815,217.927,234.730,240.258
0.302,16.130,2.812,2.812,218.055,234.738,240.157
0.304,16.294,2.831,2.831,218.178,234.753,240.050
0.306,16.454,2.871,2.871,218.291,234.774,239.938
0.308,16.609,2.920,2.920,218.391,234.802,239.823
0.311,16.757,2.966,2.966,218.472,234.835,239.704
0.313,16.898,2.999,2.999,218.531,234.874,239.582
0.315,17.033,3.007,3.007,218.563,234.918,239.458
0.317,17.167,2.989,2.989,218.564,234.966,239.333
0.319,17.308,2.949,2.949,218.530,235.018,239.206
0.321,17.461,2.889,2.889,218.464,235.073,239.080
0.323,17.627,2.812,2.812,218.373,235.128,238.952
0.325,17.806,2.723,2.723,218.262,235.183,238.824
0.327,17.993,2.630,2.630,218.136,235.236,238.695
0.329,18.186,2.543,2.543,218.002,235.284,238.566
0.331,18.379,2.473,2.473,217.865,235.326,238.435
0.333,18.570,2.429,2.429,217.731,235.361,238.305
0.335,18.753,2.418,2.418,217.606,235.386,238.173
0.337,18.926,2.432,2.432,217.495,235.400,238.041
0.340,19.087,2.455,2.455,217.404,235.402,237.908
0.342,19.236,2.475,2.475,217.339,235.389,237.775
0.344,19.378,2.478,2.478,217.303,235.361,237.641
0.346,19.518,2.458,2.458,217.295,235.319,237.507
0.348,19.663,2.423,2.423,217.310,235.267,237.373
0.350,19.813,2.386,2.386,217.346,235.206,237.241
0.352,19.969,2.360,2.360,217.398,235.140,237.110
0.354,20.129,2.358,2.358,217.463,235.070,236.981
0.356,20.292,2.384,2.384,217.537,234.999,236.855
0.358,20.454,2.428,2.428,217.618,234.930,236.732
0.360,20.614,2.478,2.478,217.701,234.865,236.612
0.362,20.766,2.523,2.523,217.782,234.806,236.497
0.364,20.909,2.550,2.550,217.859,234.757,236.387
0.366,21.040,2.556,2.556,217.928,234.719,236.282
0.369,21.158,2.548,2.548,217.986,234.694,236.182
0.371,21.265,2.535,2.535,218.033,234.680,236.087
0.373,21.364,2.523,2.523,218.071,234.674,235.996
0.375,21.457,2.523,2.523,218.100,234.676,235.908
0.377,21.546,2.534,2.534,218.121,234.683,235.822
0.379,21.633,2.554,2.554,218.133,234.694,235.737
0.381,21.718,2.577,2.577,218.138,234.705,235.652
0.383,21.804,2.600,2.600,218.136,234.717,235.567
0.385,21.891,2.617,2.617,218.127,234.726,235.481
0.387,21.981,2.628,2.628,218.113,234.730,235.393
0.389,22.074,2.632,2.632,218.093,234.729,235.301
0.391,22.173,2.631,2.631,218.069,234.719,235.206
0.393,22.278,2.623,2.623,218.040,234.701,235.107
0.395,22.390,2.609,2.609,218.006,234.676,235.003
0.398,22.508,2.592,2.592,217.969,234.645,234.896
0.400,22.632,2.574,2.574,217.926,234.609,234.784
0.402,22.763,2.559,2.559,217.879,234.570,234.669
0.404,22.899,2.548,2.548,217.828,234.528,234.550
0.406,23.040,2.544,2.544,217.773,234.484,234.427
0.408,23.186,2.546,2.546,217.713,234.441,234.301
0.410,23.337,2.550,2.550,217.650,234.399,234.172
0.412,23.491,2.555,2.555,217.582,234.359,234.039
0.414,23.649,2.557,2.557,217.509,234.322,233.903
0.416,23.811,2.554,2.554,217.433,234.290,233.764
0.418,23.975,2.548,2.548,217.354,234.263,233.623
0.420,24.139,2.545,2.545,217.273,234.240,233.483
0.422,24.301,2.548,2.548,217.191,234.221,233.344
0.424,24.460,2.560,2.560,217.110,234.206,233.209
0.427,24.612,2.584,2.584,217.031,234.195,233.079
0.429,24.756,2.616,2.616,216.956,234.186,232.956
0.431,24.890,2.652,2.652,216.885,234.181,232.842
0.433,25.012,2.688,2.688,216.821,234.178,232.739
0.435,25.119,2.717,2.717,216.764,234.177,232.649
0.437,25.209,2.739,2.739,216.715,234.178,232.573
0.439,25.280,2.753,2.753,216.677,234.181,232.513
0.441,25.331,2.760,2.760,216.650,234.184,232.470
0.443,25.364,2.763,2.763,216.633,234.189,232.443
0.445,25.381,2.762,2.762,216.624,234.194,232.429
0.447,25.387,2.759,2.759,216.621,234.199,232.425
0.449,25.394,2.755,2.755,216.624,234.203,232.430
0.451,25.407,2.752,2.752,216.631,234.205,232.441
0.453,25.424,2.750,2.750,216.639,234.207,232.456
0.455,25.442,2.753,2.753,216.648,234.206,232.471
0.458,25.458,2.759,2.759,216.656,234.203,232.485
0.460,25.470,2.767,2.767,216.661,234.197,232.495
0.462,25.481,2.774,2.774,216.662,234.187,232.498
0.464,25.496,2.779,2.779,216.657,234.173,232.493
0.466,25.523,2.779,2.779,216.644,234.156,232.477
0.468,25.560,2.775,2.775,216.624,234.136,232.452
0.470,25.608,2.771,2.771,216.596,234.116,232.420
0.472,25.664,2.768,2.768,216.560,234.097,232.381
0.474,25.729,2.769,2.769,216.515,234.081,232.337
0.476,25.802,2.776,2.776,216.461,234.069,232.289
0.478,25.883,2.788,2.788,216.397,234.064,232.240
0.480,25.972,2.797,2.797,216.324,234.067,232.190
0.482,26.070,2.800,2.800,216.241,234.080,232.140
0.484,26.177,2.789,2.789,216.147,234.105,232.093
0.487,26.297,2.761,2.761,216.042,234.142,232.050
0.489,26.430,2.718,2.718,215.926,234.195,232.011
0.491,26.578,2.663,2.663,215.800,234.263,231.978
0.493,26.738,2.602,2.602,215.664,234.344,231.950
0.495,26.909,2.539,2.539,215.522,234.436,231.927
0.497,27.089,2.478,2.478,215.374,234.536,231.908
0.499,27.274,2.420,2.420,215.222,234.643,231.892
0.501,27.464,2.366,2.366,215.069,234.753,231.879
0.503,27.654,2.316,2.316,214.916,234.866,231.868
0.505,27.842,2.271,2.271,214.765,234.978,231.859
0.507,28.025,2.230,2.230,214.618,235.087,231.852
0.509,28.201,2.192,2.192,214.476,235.191,231.845
0.511,28.367,2.154,2.154,214.342,235.288,231.838
0.513,28.521,2.114,2.114,214.216,235.375,231.831
0.516,28.660,2.071,2.071,214.101,235.453,231.823
0.518,28.785,2.023,2.023,213.997,235.522,231.813
0.520,28.896,1.979,1.979,213.904,235.582,231.800
0.522,28.994,1.944,1.944,213.825,235.636,231.784
0.524,29.078,1.927,1.927,213.758,235.683,231.763
0.526,29.150,1.933,1.933,213.706,235.725,231.737
0.528,29.211,1.964,1.964,213.668,235.762,231.705
0.530,29.267,2.009,2.009,213.647,235.796,231.666
0.532,29.323,2.055,2.055,213.642,235.827,231.620
0.534,29.386,2.092,2.092,213.654,235.856,231.566
0.536,29.462,2.107,2.107,213.684,235.884,231.502
0.538,29.554,2.098,2.098,213.732,235.912,231.428
0.540,29.662,2.071,2.071,213.795,235.940,231.346
0.542,29.781,2.035,2.035,213.868,235.968,231.256
0.545,29.908,1.996,1.996,213.946,235.996,231.159
0.547,30.039,1.963,1.963,214.024,236.025,231.058
0.549,30.170,1.939,1.939,214.097,236.053,230.954
0.551,30.297,1.925,1.925,214.161,236.083,230.847
0.553,30.419,1.921,1.921,214.209,236.112,230.740
0.555,30.533,1.929,1.929,214.239,236.143,230.633
0.557,30.642,1.949,1.949,214.243,236.174,230.529
0.559,30.751,1.976,1.976,214.219,236.205,230.428
0.561,30.868,2.004,2.004,214.160,236.237,230.332
0.563,31.003,2.027,2.027,214.064,236.271,230.242
0.565,31.160,2.038,2.038,213.937,236.305,230.157
0.567,31.334,2.033,2.033,213.787,236.342,230.076
0.569,31.522,2.016,2.016,213.621,236.383,229.999
0.571,31.716,2.001,2.001,213.448,236.427,229.923
0.573,31.911,1.998,1.998,213.275,236.476,229.848
0.576,32.101,2.018,2.018,213.109,236.531,229.774
0.578,32.280,2.070,2.070,212.958,236.592,229.698
0.580,32.444,2.143,2.143,212.831,236.661,229.621
0.582,32.592,2.222,2.222,212.734,236.737,229.540
0.584,32.725,2.290,2.290,212.675,236.822,229.455
0.586,32.856,2.331,2.331,212.663,236.917,229.366
0.588,33.001,2.335,2.335,212.698,237.020,229.271
0.590,33.168,2.310,2.310,212.775,237.130,229.172
0.592,33.353,2.272,2.272,212.882,237.244,229.071
0.594,33.553,2.233,2.233,213.011,237.357,228.969
0.596,33.760,2.207,2.207,213.154,237.468,228.869
0.598,33.965,2.203,2.203,213.301,237.572,228.771
0.600,34.160,2.215,2.215,213.443,237.668,228.678
0.602,34.336,2.235,2.235,213.571,237.751,228.591
0.605,34.485,2.256,2.256,213.677,237.819,228.511
0.607,34.598,2.268,2.268,213.750,237.870,228.440
0.609,34.672,2.268,2.268,213.782,237.899,228.380
0.611,34.723,2.260,2.260,213.765,237.903,228.333
0.613,34.802,2.248,2.248,213.697,237.884,228.298
0.615,34.923,2.235,2.235,213.585,237.844,228.275
0.617,35.083,2.225,2.225,213.436,237.786,228.261
0.619,35.275,2.223,2.223,213.258,237.715,228.255
0.621,35.492,2.231,2.231,213.058,237.632,228.257
0.623,35.725,2.251,2.251,212.843,237.542,228.264
0.625,35.967,2.288,2.288,212.619,237.449,228.275
0.627,36.211,2.342,2.342,212.396,237.354,228.288
0.629,36.447,2.410,2.410,212.179,237.262,228.303
0.631,36.668,2.478,2.478,211.976,237.177,228.318
0.634,36.866,2.533,2.533,211.794,237.100,228.332
0.636,37.033,2.562,2.562,211.639,237.037,228.342
0.638,37.169,2.553,2.553,211.512,236.987,228.348
0.640,37.279,2.513,2.513,211.408,236.953,228.350
0.642,37.367,2.459,2.459,211.323,236.933,228.347
0.644,37.438,2.410,2.410,211.252,236.929,228.338
0.646,37.501,2.383,2.383,211.192,236.941,228.323
0.648,37.567,2.396,2.396,211.137,236.970,228.300
0.650,37.643,2.443,2.443,211.085,237.016,228.270
0.652,37.736,2.508,2.508,211.029,237.079,228.231
0.654,37.850,2.574,2.574,210.967,237.161,228.183
0.656,37.987,2.626,2.626,210.893,237.261,228.125
0.658,38.150,2.650,2.650,210.804,237.381,228.057
0.660,38.343,2.653,2.653,210.696,237.519,227.979
0.663,38.560,2.645,2.645,210.571,237.674,227.891
0.665,38.796,2.640,2.640,210.433,237.841,227.797
0.667,39.047,2.648,2.648,210.284,238.016,227.698
0.669,39.305,2.679,2.679,210.129,238.197,227.598
0.671,39.566,2.730,2.730,209.971,238.378,227.497
0.673,39.824,2.795,2.795,209.813,238.557,227.399
0.675,40.074,2.869,2.869,209.658,238.730,227.306
0.677,40.310,2.945,2.945,209.510,238.892,227.220
0.679,40.526,3.020,3.020,209.373,239.040,227.144
0.681,40.717,3.089,3.089,209.249,239.170,227.079
0.683,40.877,3.150,3.150,209.142,239.279,227.028
0.685,41.005,3.200,3.200,209.055,239.365,226.992
0.687,41.103,3.236,3.236,208.985,239.430,226.971
0.689,41.178,3.256,3.256,208.930,239.480,226.961
0.692,41.235,3.264,3.264,208.887,239.518,226.962
0.694,41.281,3.264,3.264,208.854,239.549,226.971
0.696,41.322,3.257,3.257,208.828,239.576,226.986
0.698,41.362,3.248,3.248,208.807,239.604,227.007
0.700,41.407,3.240,3.240,208.789,239.637,227.030
0.702,41.459,3.235,3.235,208.771,239.679,227.055
0.704,41.523,3.238,3.238,208.750,239.734,227.079
0.706,41.603,3.252,3.252,208.724,239.807,227.101
0.708,41.704,3.279,3.279,208.691,239.901,227.118
0.710,41.829,3.321,3.321,208.649,240.018,227.131
0.712,41.973,3.374,3.374,208.600,240.153,227.139
0.714,42.133,3.436,3.436,208.545,240.303,227.142
0.716,42.304,3.506,3.506,208.484,240.463,227.143
0.718,42.482,3.579,3.579,208.420,240.630,227.140
0.720,42.664,3.654,3.654,208.353,240.799,227.135
0.723,42.845,3.725,3.725,208.285,240.966,227.128
0.725,43.020,3.790,3.790,208.216,241.127,227.120
0.727,43.186,3.844,3.844,208.148,241.278,227.111
0.729,43.338,3.885,3.885,208.082,241.414,227.102
0.731,43.472,3.912,3.912,208.020,241.533,227.093
0.733,43.585,3.929,3.929,207.962,241.630,227.086
0.735,43.677,3.939,3.939,207.908,241.704,227.080
0.737,43.751,3.946,3.946,207.858,241.758,227.074
0.739,43.810,3.951,3.951,207.811,241.794,227.069
0.741,43.861,3.958,3.958,207.766,241.815,227.064
0.743,43.906,3.967,3.967,207.722,241.824,227.059
0.745,43.950,3.981,3.981,207.678,241.823,227.055
0.747,43.995,4.000,4.000,207.634,241.814,227.049
0.749,44.043,4.026,4.026,207.588,241.800,227.043
0.752,44.094,4.055,4.055,207.540,241.784,227.036
0.754,44.148,4.085,4.085,207.489,241.768,227.028
0.756,44.205,4.112,4.112,207.435,241.754,227.018
0.758,44.266,4.133,4.133,207.376,241.745,227.007
0.760,44.330,4.145,4.145,207.313,241.740,226.994
0.762,44.397,4.151,4.151,207.248,241.740,226.981
0.764,44.464,4.154,4.154,207.182,241.744,226.968
0.766,44.532,4.159,4.159,207.116,241.750,226.954
0.768,44.598,4.167,4.167,207.051,241.758,226.942
0.770,44.662,4.182,4.182,206.989,241.767,226.932
0.772,44.721,4.200,4.200,206.931,241.777,226.924
0.774,44.775,4.218,4.218,206.878,241.786,226.918
0.776,44.822,4.235,4.235,206.832,241.795,226.916
0.778,44.861,4.246,4.246,206.794,241.802,226.918
0.781,44.891,4.250,4.250,206.765,241.806,226.925
0.783,44.913,4.248,4.248,206.746,241.808,226.936
0.785,44.931,4.242,4.242,206.735,241.806,226.950
0.787,44.949,4.230,4.230,206.730,241.802,226.966
0.789,44.966,4.216,4.216,206.728,241.794,226.981
0.791,44.983,4.200,4.200,206.728,241.783,226.995
0.793,45.000,4.184,4.184,206.727,241.770,227.004
0.795,45.017,4.172,4.172,206.724,241.754,227.008
0.797,45.038,4.164,4.164,206.715,241.734,227.004
0.799,45.069,4.165,4.165,206.698,241.712,226.991
0.801,45.112,4.170,4.170,206.672,241.688,226.967
0.803,45.172,4.175,4.175,206.634,241.660,226.930
0.805,45.251,4.173,4.173,206.582,241.630,226.878
0.807,45.352,4.158,4.158,206.514,241.597,226.811
0.810,45.473,4.125,4.125,206.432,241.561,226.730
0.812,45.612,4.076,4.076,206.335,241.522,226.639
0.814,45.766,4.021,4.021,206.226,241.480,226.538
0.816,45.935,3.968,3.968,206.104,241.434,226.430
0.818,46.117,3.926,3.926,205.970,241.385,226.318
0.820,46.309,3.901,3.901,205.826,241.331,226.203
0.822,46.510,3.891,3.891,205.672,241.273,226.088
0.824,46.718,3.889,3.889,205.508,241.211,225.975
0.826,46.932,3.889,3.889,205.337,241.145,225.866
0.828,47.151,3.884,3.884,205.157,241.074,225.763
0.830,47.373,3.868,3.868,204.971,240.998,225.668
0.832,47.598,3.844,3.844,204.779,240.917,225.582
0.834,47.827,3.818,3.818,204.581,240.834,225.503
0.836,48.060,3.795,3.795,204.376,240.750,225.430
0.839,48.297,3.779,3.779,204.166,240.667,225.361
0.841,48.537,3.775,3.775,203.949,240.586,225.296
0.843,48.781,3.783,3.783,203.727,240.508,225.231
0.845,49.029,3.802,3.802,203.499,240.436,225.166
