"T","Distance","Radius","FreeRadius","X","Y","Z"
0.000,0.000,0.898,0.898,212.913,174.676,203.617
0.002,0.195,0.955,0.955,212.737,174.599,203.580
0.003,0.389,1.013,1.013,212.562,174.524,203.542
0.005,0.580,1.074,1.074,212.390,174.453,203.504
0.007,0.767,1.139,1.139,212.220,174.386,203.464
0.008,0.949,1.208,1.208,212.053,174.325,203.422
0.010,1.125,1.283,1.283,211.891,174.273,203.377
0.012,1.293,1.364,1.364,211.735,174.231,203.330
0.014,1.455,1.447,1.447,211.585,174.199,203.279
0.015,1.608,1.528,1.528,211.443,174.181,203.224
0.017,1.755,1.600,1.600,211.309,174.177,203.165
0.019,1.896,1.660,1.660,211.184,174.189,203.101
0.020,2.033,1.702,1.702,211.070,174.220,203.031
0.022,2.170,1.723,1.723,210.966,174.267,202.957
0.024,2.307,1.728,1.728,210.872,174.330,202.879
0.025,2.444,1.722,1.722,210.787,174.404,202.800
0.027,2.581,1.711,1.711,210.712,174.488,202.723
0.029,2.717,1.702,1.702,210.645,174.579,202.648
0.030,2.848,1.699,1.699,210.586,174.673,202.577
0.032,2.974,1.707,1.707,210.534,174.769,202.514
0.034,3.092,1.723,1.723,210.490,174.863,202.459
0.035,3.199,1.741,1.741,210.452,174.952,202.414
0.037,3.293,1.757,1.757,210.419,175.035,202.382
0.039,3.372,1.765,1.765,210.393,175.107,202.364
0.041,3.435,1.761,1.761,210.371,175.167,202.362
0.042,3.487,1.742,1.742,210.354,175.214,202.374
0.044,3.529,1.714,1.714,210.342,175.248,202.394
0.046,3.564,1.684,1.684,210.334,175.272,202.420
0.047,3.594,1.659,1.659,210.329,175.283,202.446
0.049,3.616,1.646,1.646,210.329,175.285,202.469
0.051,3.634,1.651,1.651,210.332,175.277,202.485
0.052,3.653,1.679,1.679,210.338,175.259,202.488
0.054,3.684,1.721,1.721,210.347,175.233,202.475
0.056,3.733,1.770,1.770,210.359,175.198,202.442
0.057,3.806,1.817,1.817,210.373,175.156,202.384
0.059,3.907,1.852,1.852,210.390,175.107,202.297
0.061,4.038,1.866,1.866,210.409,175.053,202.180
0.063,4.194,1.855,1.855,210.429,174.993,202.037
0.064,4.370,1.825,1.825,210.451,174.932,201.873
0.066,4.561,1.783,1.783,210.473,174.869,201.694
0.068,4.761,1.738,1.738,210.496,174.807,201.506
0.069,4.964,1.697,1.697,210.519,174.748,201.313
0.071,5.165,1.669,1.669,210.542,174.693,201.121
0.073,5.358,1.658,1.658,210.564,174.644,200.935
0.074,5.538,1.662,1.662,210.585,174.602,200.762
0.076,5.699,1.674,1.674,210.604,174.570,200.605
0.078,5.835,1.690,1.690,210.622,174.550,200.471
0.079,5.943,1.705,1.705,210.637,174.542,200.365
0.081,6.022,1.715,1.715,210.649,174.547,200.287
0.083,6.080,1.717,1.717,210.659,174.563,200.233
0.084,6.122,1.712,1.712,210.667,174.589,200.199
0.086,6.161,1.704,1.704,210.671,174.623,200.183
0.088,6.202,1.695,1.695,210.673,174.664,200.179
0.090,6.249,1.689,1.689,210.672,174.711,200.185
0.091,6.301,1.689,1.689,210.668,174.761,200.196
0.093,6.355,1.695,1.695,210.660,174.814,200.208
0.095,6.411,1.706,1.706,210.650,174.867,200.218
0.096,6.465,1.719,1.719,210.636,174.920,200.223
0.098,6.519,1.729,1.729,210.619,174.971,200.217
0.100,6.574,1.736,1.736,210.599,175.018,200.199
0.101,6.632,1.734,1.734,210.575,175.062,200.168
0.103,6.695,1.724,1.724,210.549,175.103,200.128
0.105,6.763,1.707,1.707,210.520,175.142,200.080
0.106,6.835,1.685,1.685,210.489,175.179,200.027
0.108,6.910,1.661,1.661,210.457,175.214,199.969
0.110,6.986,1.637,1.637,210.422,175.247,199.910
0.111,7.063,1.615,1.615,210.387,175.280,199.851
0.113,7.138,1.598,1.598,210.350,175.313,199.794
0.115,7.210,1.583,1.583,210.313,175.346,199.741
0.117,7.278,1.571,1.571,210.276,175.379,199.695
0.118,7.342,1.559,1.559,210.238,175.413,199.657
0.120,7.401,1.547,1.547,210.201,175.449,199.628
0.122,7.458,1.533,1.533,210.164,175.486,199.605
0.123,7.515,1.517,1.517,210.127,175.526,199.588
0.125,7.573,1.500,1.500,210.089,175.568,199.574
0.127,7.634,1.482,1.482,210.051,175.612,199.560
0.128,7.697,1.462,1.462,210.012,175.661,199.545
0.130,7.764,1.443,1.443,209.973,175.712,199.528
0.132,7.837,1.425,1.425,209.933,175.768,199.506
0.133,7.916,1.408,1.408,209.891,175.829,199.476
0.135,8.002,1.393,1.393,209.849,175.894,199.438
0.137,8.099,1.383,1.383,209.805,175.964,199.389
0.139,8.207,1.378,1.378,209.760,176.040,199.327
0.140,8.325,1.379,1.379,209.714,176.121,199.254
0.142,8.452,1.388,1.388,209.667,176.205,199.171
0.144,8.585,1.406,1.406,209.622,176.292,199.080
0.145,8.722,1.429,1.429,209.578,176.379,198.984
0.147,8.860,1.456,1.456,209.536,176.465,198.885
0.149,8.996,1.485,1.485,209.498,176.550,198.786
0.150,9.129,1.513,1.513,209.464,176.632,198.687
0.152,9.255,1.538,1.538,209.434,176.708,198.591
0.154,9.372,1.559,1.559,209.410,176.779,198.502
0.155,9.477,1.577,1.577,209.393,176.843,198.419
0.157,9.569,1.592,1.592,209.382,176.899,198.347
0.159,9.646,1.605,1.605,209.380,176.945,198.286
0.160,9.708,1.618,1.618,209.383,176.982,198.236
0.162,9.757,1.630,1.630,209.390,177.012,198.197
0.164,9.795,1.643,1.643,209.399,177.036,198.169
0.166,9.822,1.653,1.653,209.408,177.054,198.151
0.167,9.840,1.661,1.661,209.415,177.067,198.143
0.169,9.851,1.664,1.664,209.419,177.077,198.145
0.171,9.864,1.660,1.660,209.417,177.085,198.156
0.172,9.887,1.649,1.649,209.407,177.091,198.175
0.174,9.921,1.629,1.629,209.388,177.097,198.203
0.176,9.969,1.605,1.605,209.358,177.104,198.240
0.177,10.031,1.579,1.579,209.315,177.112,198.284
0.179,10.108,1.553,1.553,209.258,177.123,198.334
0.181,10.196,1.531,1.531,209.188,177.136,198.386
0.182,10.293,1.514,1.514,209.107,177.152,198.437
0.184,10.397,1.504,1.504,209.016,177.171,198.483
0.186,10.508,1.496,1.496,208.914,177.193,198.520
0.188,10.623,1.487,1.487,208.804,177.220,198.546
0.189,10.745,1.471,1.471,208.687,177.250,198.556
0.191,10.874,1.445,1.445,208.563,177.284,198.546
0.193,11.014,1.405,1.405,208.433,177.323,198.514
0.194,11.167,1.350,1.350,208.298,177.367,198.456
0.196,11.338,1.288,1.288,208.160,177.417,198.368
0.198,11.531,1.223,1.223,208.020,177.471,198.247
0.199,11.744,1.164,1.164,207.878,177.530,198.098
0.201,11.975,1.117,1.117,207.737,177.592,197.927
0.203,12.217,1.087,1.087,207.599,177.656,197.739
0.204,12.465,1.077,1.077,207.464,177.720,197.540
0.206,12.715,1.082,1.082,207.335,177.784,197.336
0.208,12.959,1.097,1.097,207.214,177.847,197.134
0.209,13.193,1.118,1.118,207.101,177.906,196.938
0.211,13.410,1.140,1.140,206.999,177.962,196.754
0.213,13.605,1.159,1.159,206.909,178.012,196.589
0.215,13.770,1.172,1.172,206.834,178.055,196.448
0.216,13.901,1.180,1.180,206.774,178.091,196.338
0.218,13.995,1.186,1.186,206.730,178.118,196.259
0.220,14.057,1.190,1.190,206.700,178.138,196.209
0.221,14.090,1.196,1.196,206.683,178.151,196.183
0.223,14.102,1.203,1.203,206.677,178.158,196.176
0.225,14.110,1.212,1.212,206.680,178.159,196.184
0.226,14.132,1.224,1.224,206.691,178.156,196.202
0.228,14.161,1.236,1.236,206.707,178.149,196.226
0.230,14.195,1.247,1.247,206.727,178.138,196.251
0.231,14.228,1.258,1.258,206.748,178.126,196.273
0.233,14.258,1.267,1.267,206.770,178.111,196.287
0.235,14.284,1.274,1.274,206.791,178.096,196.290
0.236,14.311,1.280,1.280,206.808,178.080,196.276
0.238,14.349,1.286,1.286,206.823,178.065,196.245
0.240,14.400,1.291,1.291,206.837,178.050,196.198
0.242,14.466,1.298,1.298,206.855,178.038,196.136
0.243,14.545,1.307,1.307,206.876,178.029,196.060
0.245,14.639,1.317,1.317,206.905,178.023,195.971
0.247,14.747,1.326,1.326,206.943,178.021,195.870
0.248,14.869,1.333,1.333,206.992,178.023,195.758
0.250,15.007,1.335,1.335,207.055,178.032,195.636
0.252,15.160,1.329,1.329,207.134,178.046,195.506
0.253,15.330,1.315,1.315,207.232,178.067,195.368
0.255,15.519,1.295,1.295,207.350,178.096,195.223
0.257,15.727,1.276,1.276,207.489,178.133,195.073
0.258,15.951,1.266,1.266,207.644,178.178,194.918
0.260,16.186,1.272,1.272,207.808,178.229,194.758
0.262,16.427,1.302,1.302,207.976,178.287,194.595
0.264,16.669,1.363,1.363,208.141,178.349,194.430
0.265,16.908,1.452,1.452,208.298,178.417,194.262
0.267,17.139,1.555,1.555,208.438,178.489,194.093
0.269,17.360,1.662,1.662,208.558,178.564,193.923
0.270,17.567,1.757,1.757,208.649,178.641,193.754
0.272,17.762,1.830,1.830,208.706,178.721,193.585
0.274,17.949,1.866,1.866,208.723,178.802,193.418
0.275,18.135,1.870,1.870,208.694,178.883,193.253
0.277,18.332,1.856,1.856,208.619,178.964,193.090
0.279,18.544,1.841,1.841,208.505,179.044,192.930
0.280,18.772,1.839,1.839,208.359,179.121,192.773
0.282,19.014,1.868,1.868,208.187,179.193,192.619
0.284,19.266,1.943,1.943,207.998,179.261,192.467
0.285,19.524,2.060,2.060,207.797,179.323,192.317
0.287,19.781,2.203,2.203,207.593,179.378,192.171
0.289,20.033,2.356,2.356,207.391,179.424,192.027
0.291,20.273,2.501,2.501,207.200,179.460,191.886
0.292,20.497,2.621,2.621,207.026,179.486,191.747
0.294,20.700,2.701,2.701,206.876,179.499,191.612
0.296,20.879,2.741,2.741,206.756,179.500,191.479
0.297,21.038,2.753,2.753,206.665,179.490,191.349
0.299,21.180,2.751,2.751,206.601,179.469,191.224
0.301,21.312,2.749,2.749,206.559,179.440,191.102
0.302,21.435,2.760,2.760,206.537,179.405,190.986
0.304,21.553,2.797,2.797,206.532,179.365,190.876
0.306,21.666,2.859,2.859,206.541,179.323,190.771
0.307,21.774,2.937,2.937,206.560,179.280,190.674
0.309,21.877,3.020,3.020,206.586,179.237,190.583
0.311,21.974,3.098,3.098,206.616,179.197,190.501
0.313,22.061,3.159,3.159,206.647,179.161,190.427
0.314,22.138,3.195,3.195,206.676,179.132,190.363
0.316,22.203,3.206,3.206,206.701,179.109,190.307
0.318,22.257,3.201,3.201,206.719,179.092,190.259
0.319,22.302,3.188,3.188,206.731,179.079,190.218
0.321,22.340,3.176,3.176,206.736,179.069,190.181
0.323,22.375,3.173,3.173,206.732,179.061,190.148
0.324,22.409,3.186,3.186,206.719,179.053,190.117
0.326,22.448,3.217,3.217,206.696,179.043,190.087
0.328,22.496,3.260,3.260,206.662,179.031,190.056
0.329,22.555,3.310,3.310,206.616,179.016,190.023
0.331,22.627,3.360,3.360,206.557,178.995,189.987
0.333,22.716,3.407,3.407,206.484,178.967,189.945
0.334,22.821,3.445,3.445,206.396,178.931,189.898
0.336,22.943,3.474,3.474,206.295,178.888,189.845
0.338,23.078,3.498,3.498,206.183,178.839,189.787
0.340,23.224,3.521,3.521,206.063,178.785,189.727
0.341,23.376,3.548,3.548,205.937,178.727,189.665
0.343,23.532,3.581,3.581,205.806,178.666,189.604
0.345,23.688,3.624,3.624,205.675,178.605,189.545
0.346,23.842,3.677,3.677,205.545,178.544,189.489
0.348,23.991,3.734,3.734,205.419,178.485,189.438
0.350,24.131,3.791,3.791,205.298,178.429,189.394
0.351,24.259,3.845,3.845,205.186,178.377,189.357
0.353,24.373,3.890,3.890,205.086,178.331,189.330
0.355,24.471,3.924,3.924,204.997,178.292,189.314
0.356,24.555,3.946,3.946,204.921,178.259,189.306
0.358,24.625,3.960,3.960,204.856,178.232,189.306
0.360,24.684,3.968,3.968,204.801,178.210,189.311
0.361,24.734,3.973,3.973,204.755,178.193,189.319
0.363,24.776,3.978,3.978,204.717,178.180,189.329
0.365,24.810,3.986,3.986,204.686,178.171,189.339
0.367,24.837,3.996,3.996,204.660,178.165,189.347
0.368,24.859,4.006,4.006,204.639,178.162,189.351
0.370,24.876,4.014,4.014,204.622,178.161,189.349
0.372,24.893,4.018,4.018,204.607,178.161,189.340
0.373,24.916,4.016,4.016,204.594,178.163,189.322
0.375,24.946,4.006,4.006,204.581,178.166,189.295
0.377,24.983,3.989,3.989,204.564,178.171,189.263
0.378,25.024,3.966,3.966,204.543,178.179,189.229
0.380,25.069,3.941,3.941,204.513,178.190,189.197
0.382,25.119,3.915,3.915,204.473,178.206,189.171
0.383,25.179,3.890,3.890,204.420,178.227,189.154
0.385,25.253,3.868,3.868,204.351,178.254,189.149
0.387,25.347,3.847,3.847,204.264,178.287,189.160
0.389,25.467,3.825,3.825,204.156,178.329,189.192
0.390,25.617,3.797,3.797,204.024,178.378,189.246
0.392,25.804,3.761,3.761,203.867,178.436,189.327
0.394,26.030,3.714,3.714,203.682,178.505,189.438
0.395,26.292,3.653,3.653,203.473,178.581,189.575
0.397,26.581,3.582,3.582,203.245,178.664,189.734
0.399,26.891,3.506,3.506,203.004,178.751,189.908
0.400,27.214,3.434,3.434,202.756,178.840,190.095
0.402,27.541,3.370,3.370,202.507,178.930,190.287
0.404,27.865,3.321,3.321,202.262,179.018,190.480
0.405,28.178,3.293,3.293,202.026,179.102,190.669
0.407,28.473,3.283,3.283,201.806,179.180,190.848
0.409,28.741,3.288,3.288,201.608,179.251,191.013
0.410,28.974,3.302,3.302,201.435,179.311,191.158
0.412,29.165,3.321,3.321,201.295,179.360,191.279
0.414,29.310,3.341,3.341,201.191,179.397,191.372
0.416,29.414,3.356,3.356,201.117,179.422,191.441
0.417,29.483,3.367,3.367,201.070,179.437,191.488
0.419,29.522,3.374,3.374,201.045,179.445,191.518
0.421,29.539,3.378,3.378,201.038,179.446,191.534
0.422,29.547,3.381,3.380,201.044,179.443,191.538
0.424,29.564,3.382,3.382,201.060,179.438,191.535
0.426,29.586,3.383,3.383,201.079,179.431,191.527
0.427,29.608,3.385,3.385,201.098,179.425,191.519
0.429,29.624,3.387,3.387,201.113,179.421,191.513
0.431,29.630,3.390,3.391,201.119,179.421,191.512
0.432,29.643,3.395,3.395,201.111,179.427,191.521
0.434,29.674,3.401,3.401,201.090,179.438,191.540
0.436,29.720,3.409,3.409,201.056,179.455,191.567
0.438,29.779,3.420,3.419,201.013,179.477,191.601
0.439,29.849,3.432,3.432,200.961,179.502,191.640
0.441,29.927,3.447,3.447,200.904,179.531,191.685
0.443,30.010,3.465,3.464,200.843,179.562,191.732
0.444,30.097,3.484,3.484,200.780,179.595,191.782
0.446,30.184,3.507,3.508,200.717,179.630,191.832
0.448,30.270,3.531,3.533,200.657,179.665,191.881
0.449,30.351,3.558,3.561,200.601,179.699,191.929
0.451,30.426,3.587,3.589,200.550,179.733,191.973
0.453,30.493,3.616,3.619,200.508,179.766,192.013
0.454,30.552,3.647,3.648,200.473,179.797,192.050
0.456,30.604,3.679,3.676,200.444,179.825,192.082
0.458,30.651,3.710,3.703,200.419,179.852,192.112
0.459,30.692,3.739,3.729,200.399,179.875,192.140
0.461,30.729,3.763,3.752,200.382,179.895,192.166
0.463,30.763,3.781,3.773,200.366,179.911,192.190
0.465,30.794,3.792,3.791,200.351,179.924,192.214
0.466,30.823,3.793,3.806,200.336,179.932,192.238
0.468,30.853,3.787,3.817,200.320,179.935,192.262
0.470,30.884,3.776,3.825,200.301,179.934,192.287
0.471,30.920,3.763,3.830,200.278,179.927,192.314
0.473,30.960,3.749,3.831,200.252,179.915,192.342
0.475,31.006,3.737,3.829,200.221,179.899,192.372
0.476,31.055,3.729,3.824,200.188,179.880,192.403
0.478,31.108,3.725,3.817,200.152,179.858,192.434
0.480,31.163,3.725,3.809,200.113,179.835,192.466
0.481,31.220,3.728,3.802,200.071,179.812,192.497
0.483,31.278,3.733,3.795,200.028,179.790,192.529
0.485,31.336,3.740,3.792,199.983,179.769,192.559
0.486,31.393,3.749,3.791,199.937,179.751,192.589
0.488,31.450,3.758,3.793,199.890,179.737,192.617
0.490,31.505,3.765,3.796,199.843,179.727,192.643
0.492,31.559,3.771,3.797,199.795,179.722,192.668
0.493,31.611,3.773,3.796,199.747,179.723,192.690
0.495,31.663,3.771,3.791,199.701,179.729,192.710
0.497,31.713,3.763,3.779,199.656,179.740,192.729
0.498,31.762,3.751,3.764,199.612,179.755,192.746
0.500,31.809,3.737,3.746,199.572,179.774,192.761
0.502,31.855,3.722,3.728,199.534,179.796,192.776
0.503,31.900,3.708,3.711,199.500,179.822,192.789
0.505,31.943,3.697,3.697,199.469,179.850,192.801
0.507,31.984,3.689,3.687,199.444,179.880,192.812
0.508,32.023,3.685,3.682,199.424,179.912,192.822
0.510,32.061,3.683,3.680,199.409,179.946,192.831
0.512,32.098,3.683,3.682,199.400,179.980,192.840
0.514,32.134,3.683,3.687,199.395,180.015,192.849
0.515,32.171,3.683,3.694,199.391,180.051,192.856
0.517,32.207,3.682,3.703,199.387,180.087,192.863
0.519,32.244,3.679,3.712,199.380,180.122,192.868
0.520,32.280,3.674,3.719,199.369,180.157,192.872
0.522,32.318,3.668,3.722,199.351,180.190,192.874
0.524,32.360,3.659,3.719,199.324,180.222,192.875
0.525,32.408,3.648,3.709,199.287,180.252,192.875
0.527,32.466,3.635,3.691,199.236,180.280,192.872
0.529,32.536,3.618,3.665,199.171,180.306,192.867
0.530,32.622,3.597,3.632,199.089,180.329,192.860
0.532,32.723,3.572,3.593,198.990,180.349,192.852
0.534,32.837,3.542,3.551,198.878,180.367,192.841
0.535,32.963,3.506,3.506,198.753,180.383,192.829
0.537,33.098,3.465,3.459,198.620,180.398,192.816
0.539,33.240,3.420,3.411,198.479,180.413,192.802
0.541,33.386,3.372,3.364,198.335,180.428,192.788
0.542,33.534,3.324,3.317,198.188,180.443,192.774
0.544,33.682,3.277,3.273,198.041,180.460,192.759
0.546,33.828,3.232,3.232,197.898,180.478,192.746
0.547,33.968,3.191,3.195,197.759,180.499,192.733
0.549,34.102,3.154,3.161,197.629,180.522,192.721
0.551,34.227,3.123,3.131,197.507,180.549,192.711
0.552,34.345,3.098,3.106,197.393,180.578,192.701
0.554,34.459,3.079,3.084,197.284,180.609,192.691
0.556,34.571,3.067,3.066,197.176,180.641,192.679
0.557,34.685,3.061,3.052,197.069,180.673,192.664
0.559,34.801,3.060,3.043,196.958,180.705,192.646
0.561,34.924,3.060,3.037,196.842,180.735,192.623
0.563,35.055,3.059,3.035,196.717,180.763,192.594
0.564,35.198,3.053,3.038,196.581,180.788,192.559
0.566,35.355,3.041,3.044,196.432,180.810,192.515
0.568,35.529,3.021,3.055,196.266,180.827,192.463
0.569,35.724,2.997,3.070,196.081,180.839,192.402
0.571,35.939,2.974,3.090,195.878,180.846,192.330
0.573,36.171,2.958,3.115,195.661,180.847,192.251
0.574,36.414,2.954,3.145,195.433,180.845,192.166
0.576,36.663,2.965,3.181,195.201,180.838,192.078
0.578,36.913,2.996,3.221,194.967,180.828,191.988
0.579,37.160,3.041,3.265,194.737,180.815,191.899
0.581,37.398,3.096,3.312,194.516,180.800,191.813
0.583,37.623,3.155,3.358,194.307,180.784,191.731
0.584,37.830,3.214,3.403,194.115,180.767,191.655
0.586,38.013,3.268,3.445,193.945,180.749,191.589
0.588,38.169,3.312,3.483,193.801,180.731,191.533
0.590,38.291,3.348,3.516,193.688,180.714,191.490
0.591,38.383,3.377,3.544,193.603,180.697,191.459
0.593,38.448,3.399,3.567,193.543,180.682,191.438
0.595,38.491,3.417,3.586,193.505,180.669,191.425
0.596,38.516,3.430,3.599,193.484,180.657,191.419
0.598,38.528,3.440,3.606,193.476,180.647,191.418
0.600,38.536,3.447,3.610,193.478,180.640,191.420
0.601,38.546,3.451,3.609,193.485,180.635,191.423
0.603,38.555,3.452,3.605,193.494,180.633,191.426
0.605,38.562,3.451,3.599,193.501,180.634,191.426
0.606,38.568,3.446,3.591,193.502,180.638,191.423
0.608,38.583,3.440,3.581,193.493,180.646,191.413
0.610,38.612,3.432,3.571,193.472,180.657,191.397
0.611,38.654,3.425,3.561,193.441,180.672,191.373
0.613,38.708,3.420,3.552,193.401,180.690,191.342
0.615,38.770,3.419,3.544,193.356,180.711,191.303
0.617,38.841,3.423,3.538,193.307,180.734,191.257
0.618,38.918,3.433,3.533,193.258,180.760,191.204
0.620,39.000,3.445,3.529,193.210,180.787,191.144
0.622,39.086,3.457,3.523,193.165,180.816,191.076
0.623,39.176,3.466,3.515,193.126,180.846,191.002
0.625,39.269,3.470,3.502,193.096,180.878,190.919
0.627,39.366,3.464,3.483,193.076,180.909,190.830
0.628,39.468,3.449,3.459,193.069,180.942,190.733
0.630,39.575,3.429,3.434,193.073,180.975,190.631
0.632,39.686,3.411,3.412,193.086,181.009,190.527
0.633,39.797,3.399,3.399,193.103,181.045,190.423
0.635,39.905,3.399,3.399,193.119,181.084,190.324
0.637,40.008,3.416,3.416,193.132,181.126,190.231
0.639,40.103,3.451,3.451,193.137,181.173,190.149
0.640,40.189,3.492,3.493,193.130,181.225,190.080
0.642,40.270,3.530,3.530,193.107,181.282,190.028
0.644,40.353,3.553,3.553,193.064,181.346,189.995
0.645,40.450,3.549,3.549,192.998,181.416,189.986
0.647,40.574,3.509,3.509,192.904,181.495,190.003
0.649,40.732,3.428,3.427,192.780,181.581,190.048
0.650,40.924,3.317,3.316,192.628,181.676,190.119
0.652,41.146,3.188,3.187,192.453,181.777,190.212
0.654,41.393,3.053,3.052,192.261,181.884,190.323
0.655,41.659,2.923,2.923,192.054,181.996,190.449
0.657,41.939,2.810,2.811,191.840,182.111,190.586
0.659,42.226,2.721,2.722,191.621,182.230,190.729
0.660,42.516,2.651,2.654,191.402,182.350,190.876
0.662,42.801,2.596,2.600,191.189,182.471,191.023
0.664,43.077,2.552,2.555,190.986,182.593,191.164
0.666,43.338,2.514,2.516,190.797,182.713,191.298
0.667,43.578,2.478,2.477,190.628,182.832,191.420
0.669,43.795,2.443,2.436,190.480,182.948,191.528
0.671,43.988,2.408,2.397,190.353,183.060,191.622
0.672,44.160,2.376,2.361,190.247,183.166,191.703
0.674,44.310,2.347,2.333,190.159,183.267,191.773
0.676,44.439,2.322,2.315,190.090,183.360,191.831
0.677,44.549,2.304,2.310,190.038,183.444,191.879
0.679,44.641,2.292,2.318,190.002,183.518,191.917
0.681,44.714,2.283,2.335,189.982,183.582,191.946
0.682,44.770,2.274,2.356,189.975,183.634,191.967
0.684,44.811,2.264,2.378,189.983,183.672,191.981
0.686,44.843,2.249,2.394,190.002,183.697,191.988
0.688,44.875,2.227,2.401,190.033,183.706,191.989
0.689,44.915,2.198,2.397,190.072,183.702,191.985
