"T","Distance","Radius","FreeRadius","X","Y","Z"
0.000,0.000,1.460,1.460,231.935,195.210,205.088
0.001,0.148,1.427,1.427,231.927,195.322,204.991
0.002,0.296,1.394,1.394,231.919,195.433,204.894
0.004,0.442,1.362,1.362,231.912,195.543,204.798
0.005,0.585,1.333,1.333,231.906,195.650,204.703
0.006,0.726,1.306,1.306,231.900,195.755,204.610
0.007,0.862,1.283,1.283,231.896,195.856,204.518
0.008,0.993,1.264,1.264,231.893,195.953,204.430
0.010,1.119,1.249,1.249,231.892,196.044,204.344
0.011,1.238,1.239,1.239,231.892,196.130,204.261
0.012,1.351,1.234,1.234,231.895,196.210,204.182
0.013,1.456,1.233,1.233,231.900,196.283,204.107
0.015,1.554,1.232,1.232,231.906,196.352,204.037
0.016,1.647,1.232,1.232,231.911,196.420,203.973
0.017,1.736,1.230,1.230,231.916,196.489,203.918
0.018,1.824,1.226,1.226,231.917,196.564,203.871
0.019,1.914,1.217,1.217,231.915,196.647,203.835
0.021,2.012,1.202,1.202,231.907,196.741,203.809
0.022,2.122,1.180,1.180,231.892,196.849,203.797
0.023,2.250,1.155,1.155,231.870,196.974,203.798
0.024,2.400,1.127,1.127,231.838,197.120,203.815
0.025,2.577,1.098,1.098,231.796,197.289,203.847
0.027,2.777,1.070,1.070,231.748,197.478,203.893
0.028,2.995,1.045,1.045,231.696,197.682,203.950
0.029,3.225,1.025,1.025,231.647,197.898,204.014
0.030,3.462,1.012,1.012,231.603,198.120,204.082
0.032,3.700,1.006,1.006,231.569,198.345,204.152
0.033,3.935,1.008,1.008,231.549,198.569,204.220
0.034,4.161,1.019,1.019,231.548,198.786,204.283
0.035,4.377,1.036,1.036,231.569,198.993,204.338
0.036,4.580,1.060,1.060,231.618,199.186,204.382
0.038,4.773,1.091,1.091,231.696,199.360,204.412
0.039,4.961,1.128,1.128,231.801,199.515,204.429
0.040,5.147,1.171,1.171,231.926,199.653,204.435
0.041,5.332,1.220,1.220,232.065,199.775,204.431
0.042,5.513,1.272,1.272,232.211,199.881,204.420
0.044,5.688,1.328,1.328,232.359,199.973,204.402
0.045,5.852,1.384,1.384,232.501,200.051,204.381
0.046,6.002,1.439,1.439,232.633,200.118,204.357
0.047,6.131,1.492,1.492,232.747,200.174,204.333
0.049,6.235,1.541,1.541,232.837,200.220,204.309
0.050,6.309,1.584,1.584,232.898,200.258,204.289
0.051,6.358,1.619,1.619,232.932,200.289,204.272
0.052,6.389,1.647,1.647,232.943,200.314,204.259
0.053,6.413,1.667,1.667,232.937,200.335,204.249
0.055,6.440,1.682,1.682,232.917,200.353,204.242
0.056,6.473,1.691,1.691,232.890,200.371,204.240
0.057,6.509,1.696,1.696,232.859,200.389,204.240
0.058,6.544,1.699,1.699,232.830,200.410,204.245
0.059,6.579,1.699,1.699,232.808,200.434,204.253
0.061,6.613,1.699,1.699,232.796,200.464,204.265
0.062,6.652,1.698,1.698,232.801,200.500,204.281
0.063,6.703,1.697,1.697,232.821,200.542,204.300
0.064,6.764,1.696,1.696,232.854,200.589,204.322
0.066,6.834,1.693,1.693,232.898,200.638,204.346
0.067,6.911,1.689,1.689,232.951,200.688,204.372
0.068,6.993,1.684,1.684,233.010,200.737,204.399
0.069,7.075,1.677,1.677,233.072,200.784,204.426
0.070,7.157,1.668,1.668,233.137,200.826,204.452
0.072,7.234,1.657,1.657,233.200,200.862,204.478
0.073,7.306,1.643,1.643,233.261,200.891,204.503
0.074,7.368,1.629,1.629,233.316,200.910,204.525
0.075,7.422,1.615,1.615,233.365,200.921,204.545
0.076,7.468,1.602,1.602,233.408,200.924,204.563
0.078,7.508,1.591,1.591,233.443,200.921,204.578
0.079,7.540,1.582,1.582,233.472,200.913,204.592
0.080,7.567,1.577,1.577,233.494,200.902,204.603
0.081,7.588,1.577,1.577,233.508,200.889,204.612
0.083,7.605,1.581,1.581,233.514,200.875,204.619
0.084,7.618,1.590,1.590,233.512,200.863,204.623
0.085,7.633,1.601,1.601,233.503,200.852,204.626
0.086,7.652,1.613,1.613,233.485,200.846,204.627
0.087,7.676,1.627,1.627,233.461,200.842,204.626
0.089,7.701,1.640,1.640,233.435,200.841,204.624
0.090,7.724,1.651,1.651,233.413,200.841,204.623
0.091,7.740,1.661,1.661,233.397,200.840,204.624
0.092,7.746,1.667,1.667,233.391,200.838,204.626
0.093,7.759,1.672,1.672,233.401,200.833,204.631
0.095,7.790,1.675,1.675,233.430,200.824,204.640
0.096,7.847,1.680,1.680,233.483,200.809,204.655
0.097,7.932,1.686,1.686,233.563,200.788,204.674
0.098,8.050,1.695,1.695,233.674,200.759,204.701
0.100,8.198,1.708,1.708,233.814,200.723,204.733
0.101,8.370,1.727,1.727,233.977,200.682,204.770
0.102,8.558,1.753,1.753,234.155,200.636,204.810
0.103,8.754,1.784,1.784,234.341,200.588,204.850
0.104,8.952,1.820,1.820,234.528,200.540,204.891
0.106,9.144,1.857,1.857,234.710,200.492,204.929
0.107,9.323,1.896,1.896,234.880,200.447,204.964
0.108,9.481,1.934,1.934,235.030,200.407,204.994
0.109,9.611,1.969,1.969,235.154,200.373,205.016
0.110,9.707,2.000,2.000,235.244,200.346,205.031
0.112,9.768,2.025,2.025,235.302,200.327,205.037
0.113,9.801,2.044,2.044,235.333,200.315,205.037
0.114,9.813,2.057,2.057,235.342,200.310,205.033
0.115,9.823,2.065,2.065,235.335,200.310,205.025
0.117,9.843,2.070,2.070,235.318,200.316,205.016
0.118,9.868,2.071,2.071,235.296,200.325,205.008
0.119,9.892,2.070,2.070,235.276,200.338,205.002
0.120,9.913,2.067,2.067,235.263,200.354,205.000
0.121,9.931,2.064,2.064,235.263,200.371,205.004
0.123,9.959,2.061,2.061,235.281,200.390,205.015
0.124,10.005,2.057,2.057,235.318,200.409,205.034
0.125,10.066,2.052,2.052,235.371,200.429,205.058
0.126,10.140,2.045,2.045,235.436,200.450,205.085
0.127,10.222,2.036,2.036,235.510,200.473,205.114
0.129,10.308,2.024,2.024,235.587,200.496,205.142
0.130,10.394,2.009,2.009,235.666,200.521,205.168
0.131,10.477,1.990,1.990,235.742,200.547,205.190
0.132,10.553,1.966,1.966,235.811,200.575,205.204
0.133,10.619,1.939,1.939,235.869,200.605,205.211
0.135,10.674,1.910,1.910,235.914,200.637,205.207
0.136,10.721,1.880,1.880,235.944,200.670,205.193
0.137,10.766,1.851,1.851,235.961,200.704,205.169
0.138,10.813,1.823,1.823,235.969,200.738,205.136
0.140,10.865,1.799,1.799,235.971,200.771,205.097
0.141,10.921,1.779,1.779,235.968,200.804,205.052
0.142,10.979,1.766,1.766,235.963,200.834,205.003
0.143,11.038,1.758,1.758,235.960,200.862,204.950
0.144,11.098,1.755,1.755,235.960,200.886,204.896
0.146,11.156,1.755,1.755,235.967,200.907,204.842
0.147,11.215,1.755,1.755,235.983,200.923,204.788
0.148,11.275,1.755,1.755,236.009,200.935,204.735
0.149,11.340,1.754,1.754,236.046,200.945,204.682
0.150,11.414,1.748,1.748,236.094,200.956,204.628
0.152,11.496,1.737,1.737,236.153,200.971,204.571
0.153,11.590,1.720,1.720,236.222,200.992,204.512
0.154,11.697,1.698,1.698,236.302,201.021,204.447
0.155,11.818,1.674,1.674,236.393,201.061,204.377
0.157,11.956,1.650,1.650,236.494,201.114,204.301
0.158,12.113,1.628,1.628,236.607,201.183,204.216
0.159,12.291,1.610,1.610,236.730,201.271,204.122
0.160,12.489,1.598,1.598,236.863,201.377,204.020
0.161,12.705,1.595,1.595,237.002,201.502,203.912
0.163,12.934,1.601,1.601,237.146,201.641,203.802
0.164,13.172,1.616,1.616,237.291,201.794,203.691
0.165,13.415,1.640,1.640,237.433,201.959,203.584
0.166,13.659,1.671,1.671,237.572,202.134,203.483
0.167,13.902,1.707,1.707,237.702,202.316,203.391
0.169,14.139,1.747,1.747,237.822,202.505,203.311
0.170,14.368,1.790,1.790,237.928,202.697,203.246
0.171,14.588,1.834,1.834,238.018,202.892,203.199
0.172,14.798,1.878,1.878,238.091,203.087,203.171
0.174,15.000,1.922,1.922,238.148,203.280,203.160
0.175,15.194,1.964,1.964,238.190,203.470,203.163
0.176,15.381,2.005,2.005,238.221,203.654,203.177
0.177,15.560,2.045,2.045,238.241,203.830,203.202
0.178,15.731,2.082,2.082,238.253,203.998,203.233
0.180,15.891,2.118,2.118,238.258,204.153,203.269
0.181,16.039,2.151,2.151,238.258,204.296,203.308
0.182,16.172,2.181,2.181,238.255,204.423,203.346
0.183,16.287,2.209,2.209,238.251,204.533,203.382
0.184,16.385,2.234,2.234,238.248,204.626,203.413
0.186,16.466,2.255,2.255,238.244,204.702,203.440
0.187,16.532,2.274,2.274,238.241,204.764,203.464
0.188,16.586,2.290,2.290,238.237,204.813,203.484
0.189,16.628,2.302,2.302,238.233,204.852,203.500
0.191,16.662,2.311,2.311,238.228,204.883,203.514
0.192,16.688,2.317,2.317,238.222,204.906,203.524
0.193,16.710,2.320,2.320,238.216,204.925,203.532
0.194,16.728,2.321,2.321,238.208,204.941,203.537
0.195,16.745,2.319,2.319,238.200,204.955,203.540
0.197,16.763,2.317,2.317,238.190,204.970,203.541
0.198,16.782,2.314,2.314,238.179,204.986,203.541
0.199,16.802,2.312,2.312,238.168,205.002,203.538
0.200,16.823,2.311,2.311,238.156,205.019,203.534
0.201,16.844,2.313,2.313,238.145,205.037,203.528
0.203,16.867,2.317,2.317,238.135,205.056,203.521
0.204,16.891,2.324,2.324,238.126,205.077,203.513
0.205,16.916,2.332,2.332,238.119,205.099,203.503
0.206,16.943,2.342,2.342,238.114,205.123,203.492
0.208,16.971,2.352,2.352,238.111,205.148,203.481
0.209,17.002,2.361,2.361,238.110,205.176,203.469
0.210,17.034,2.369,2.369,238.113,205.205,203.457
0.211,17.067,2.374,2.374,238.118,205.237,203.445
0.212,17.103,2.376,2.376,238.127,205.270,203.434
0.214,17.141,2.374,2.374,238.137,205.305,203.426
0.215,17.180,2.370,2.370,238.151,205.341,203.420
0.216,17.222,2.362,2.362,238.168,205.379,203.417
0.217,17.266,2.353,2.353,238.187,205.419,203.417
0.218,17.313,2.344,2.344,238.209,205.460,203.422
0.220,17.364,2.334,2.334,238.234,205.503,203.433
0.221,17.417,2.324,2.324,238.261,205.547,203.447
0.222,17.474,2.316,2.316,238.289,205.593,203.463
0.223,17.530,2.310,2.310,238.315,205.642,203.477
0.225,17.587,2.305,2.305,238.338,205.693,203.484
0.226,17.644,2.301,2.301,238.356,205.747,203.480
0.227,17.705,2.296,2.296,238.366,205.805,203.463
0.228,17.777,2.288,2.288,238.366,205.867,203.427
0.229,17.865,2.278,2.278,238.355,205.933,203.369
0.231,17.978,2.265,2.265,238.331,206.005,203.286
0.232,18.120,2.246,2.246,238.291,206.081,203.173
0.233,18.296,2.222,2.222,238.235,206.164,203.028
0.234,18.499,2.191,2.191,238.163,206.251,202.859
0.235,18.725,2.157,2.157,238.080,206.342,202.670
0.237,18.964,2.120,2.120,237.985,206.436,202.471
0.238,19.211,2.080,2.080,237.883,206.533,202.268
0.239,19.458,2.040,2.040,237.775,206.630,202.069
0.240,19.698,2.001,2.001,237.663,206.729,201.880
0.242,19.925,1.964,1.964,237.551,206.826,201.709
0.243,20.133,1.930,1.930,237.439,206.923,201.564
0.244,20.316,1.900,1.900,237.330,207.017,201.450
0.245,20.474,1.875,1.875,237.227,207.109,201.374
0.246,20.615,1.855,1.855,237.129,207.201,201.329
0.248,20.747,1.841,1.841,237.038,207.294,201.307
0.249,20.876,1.834,1.834,236.954,207.392,201.299
0.250,21.006,1.833,1.833,236.877,207.496,201.299
0.251,21.139,1.839,1.839,236.808,207.610,201.297
0.252,21.279,1.853,1.853,236.747,207.736,201.286
0.254,21.431,1.876,1.876,236.695,207.876,201.257
0.255,21.602,1.906,1.906,236.652,208.032,201.203
0.256,21.802,1.945,1.945,236.618,208.208,201.115
0.257,22.036,1.992,1.992,236.594,208.403,200.988
0.258,22.303,2.046,2.046,236.578,208.615,200.827
0.260,22.593,2.109,2.109,236.568,208.837,200.641
0.261,22.897,2.180,2.180,236.563,209.065,200.439
0.262,23.206,2.258,2.258,236.560,209.291,200.228
0.263,23.511,2.345,2.345,236.558,209.512,200.018
0.265,23.800,2.437,2.437,236.555,209.720,199.818
0.266,24.065,2.533,2.533,236.549,209.912,199.635
0.267,24.295,2.628,2.628,236.538,210.080,199.478
0.268,24.481,2.720,2.720,236.520,210.219,199.356
0.269,24.617,2.806,2.806,236.495,210.326,199.275
0.271,24.713,2.882,2.882,236.463,210.403,199.230
0.272,24.780,2.946,2.946,236.427,210.457,199.209
0.273,24.831,2.995,2.995,236.390,210.491,199.205
0.274,24.874,3.028,3.028,236.353,210.513,199.206
0.275,24.911,3.052,3.052,236.319,210.526,199.204
0.277,24.944,3.071,3.071,236.291,210.538,199.190
0.278,24.990,3.093,3.093,236.270,210.552,199.152
0.279,25.064,3.122,3.122,236.260,210.575,199.082
0.280,25.182,3.165,3.165,236.262,210.613,198.970
0.282,25.353,3.229,3.229,236.279,210.668,198.809
0.283,25.573,3.318,3.318,236.308,210.740,198.604
0.284,25.829,3.437,3.437,236.349,210.826,198.366
0.285,26.111,3.581,3.581,236.397,210.919,198.104
0.286,26.409,3.742,3.742,236.450,211.018,197.828
0.288,26.710,3.911,3.911,236.506,211.117,197.550
0.289,27.003,4.081,4.081,236.563,211.213,197.278
0.290,27.278,4.243,4.243,236.617,211.303,197.024
0.291,27.523,4.389,4.389,236.667,211.381,196.797
0.292,27.727,4.512,4.512,236.709,211.444,196.608
0.294,27.881,4.603,4.603,236.742,211.488,196.465
0.295,27.986,4.663,4.663,236.766,211.515,196.365
0.296,28.053,4.698,4.698,236.785,211.527,196.303
0.297,28.089,4.711,4.711,236.800,211.527,196.270
0.299,28.109,4.709,4.709,236.814,211.516,196.260
0.300,28.133,4.696,4.696,236.829,211.499,196.267
0.301,28.166,4.679,4.679,236.847,211.476,196.282
0.302,28.205,4.662,4.662,236.872,211.451,196.300
0.303,28.248,4.651,4.651,236.905,211.426,196.313
0.305,28.297,4.648,4.648,236.948,211.404,196.314
0.306,28.358,4.654,4.654,237.005,211.387,196.298
0.307,28.437,4.665,4.665,237.074,211.376,196.263
0.308,28.532,4.681,4.681,237.155,211.370,196.213
0.309,28.645,4.700,4.700,237.248,211.370,196.150
0.311,28.772,4.722,4.722,237.352,211.374,196.076
0.312,28.912,4.744,4.744,237.465,211.384,195.995
0.313,29.062,4.765,4.765,237.588,211.398,195.908
0.314,29.222,4.784,4.784,237.719,211.416,195.819
0.316,29.388,4.802,4.802,237.857,211.439,195.729
0.317,29.560,4.820,4.820,238.002,211.465,195.642
0.318,29.735,4.838,4.838,238.154,211.496,195.560
0.319,29.912,4.858,4.858,238.309,211.529,195.483
0.320,30.089,4.880,4.880,238.468,211.565,195.412
0.322,30.265,4.907,4.907,238.627,211.602,195.347
0.323,30.438,4.938,4.938,238.784,211.641,195.287
0.324,30.606,4.974,4.974,238.939,211.679,195.234
0.325,30.767,5.016,5.016,239.089,211.717,195.187
0.326,30.921,5.061,5.061,239.233,211.753,195.147
0.328,31.064,5.108,5.108,239.367,211.787,195.112
0.329,31.195,5.154,5.154,239.492,211.818,195.084
0.330,31.312,5.199,5.199,239.604,211.845,195.063
0.331,31.416,5.241,5.241,239.704,211.868,195.047
0.333,31.508,5.278,5.278,239.793,211.888,195.035
0.334,31.589,5.308,5.308,239.872,211.903,195.024
0.335,31.660,5.331,5.331,239.941,211.914,195.014
0.336,31.724,5.347,5.347,240.003,211.922,195.003
0.337,31.781,5.357,5.357,240.058,211.925,194.989
0.339,31.833,5.362,5.362,240.107,211.924,194.969
0.340,31.885,5.361,5.361,240.152,211.920,194.944
0.341,31.939,5.355,5.355,240.192,211.911,194.910
0.342,31.998,5.346,5.346,240.230,211.899,194.866
0.343,32.062,5.333,5.333,240.265,211.883,194.815
0.345,32.127,5.318,5.318,240.294,211.866,194.759
0.346,32.191,5.301,5.301,240.317,211.850,194.702
0.347,32.249,5.285,5.285,240.330,211.835,194.647
0.348,32.298,5.270,5.270,240.334,211.824,194.599
0.350,32.337,5.257,5.257,240.325,211.818,194.561
0.351,32.371,5.249,5.249,240.302,211.818,194.537
0.352,32.411,5.247,5.247,240.263,211.827,194.530
0.353,32.471,5.252,5.252,240.207,211.845,194.544
0.354,32.560,5.265,5.265,240.132,211.875,194.582
0.356,32.673,5.284,5.284,240.044,211.913,194.640
0.357,32.795,5.303,5.303,239.951,211.955,194.709
0.358,32.912,5.317,5.317,239.866,211.995,194.777
0.359,33.007,5.321,5.321,239.797,212.028,194.834
0.360,33.066,5.311,5.311,239.756,212.049,194.871
0.362,33.074,5.280,5.280,239.752,212.052,194.878
0.363,33.134,5.224,5.224,239.796,212.032,194.843
0.364,33.276,5.138,5.138,239.899,211.984,194.757
0.365,33.516,5.022,5.022,240.070,211.902,194.610
0.367,33.868,4.883,4.883,240.319,211.781,194.393
0.368,34.327,4.730,4.730,240.642,211.624,194.107
0.369,34.870,4.570,4.570,241.023,211.438,193.768
0.370,35.472,4.413,4.413,241.444,211.232,193.391
0.371,36.109,4.265,4.265,241.890,211.014,192.990
0.373,36.758,4.135,4.135,242.341,210.792,192.580
0.374,37.395,4.031,4.031,242.783,210.574,192.177
0.375,37.995,3.959,3.959,243.198,210.370,191.794
0.376,38.535,3.916,3.916,243.569,210.187,191.447
0.377,38.990,3.897,3.897,243.878,210.033,191.151
0.379,39.338,3.897,3.897,244.111,209.917,190.920
0.380,39.573,3.913,3.913,244.263,209.840,190.758
0.381,39.712,3.938,3.938,244.347,209.796,190.657
0.382,39.770,3.969,3.969,244.375,209.781,190.609
0.383,39.787,4.001,4.001,244.360,209.787,190.606
0.385,39.850,4.029,4.029,244.313,209.810,190.641
0.386,39.948,4.053,4.053,244.246,209.843,190.704
0.387,40.066,4.072,4.072,244.172,209.882,190.789
0.388,40.192,4.089,4.089,244.104,209.919,190.887
0.390,40.311,4.104,4.104,244.053,209.950,190.991
0.391,40.416,4.119,4.119,244.032,209.969,191.091
0.392,40.511,4.133,4.133,244.045,209.973,191.186
0.393,40.611,4.149,4.149,244.091,209.966,191.274
0.394,40.725,4.167,4.167,244.165,209.951,191.359
0.396,40.856,4.187,4.187,244.265,209.929,191.441
0.397,41.004,4.210,4.210,244.387,209.903,191.522
0.398,41.169,4.234,4.234,244.529,209.877,191.602
0.399,41.348,4.259,4.259,244.686,209.853,191.684
0.400,41.539,4.286,4.286,244.856,209.834,191.769
0.402,41.739,4.312,4.312,245.036,209.822,191.857
0.403,41.948,4.339,4.339,245.221,209.820,191.951
0.404,42.161,4.366,4.366,245.410,209.830,192.050
0.405,42.376,4.392,4.392,245.599,209.848,192.151
0.407,42.589,4.417,4.417,245.784,209.873,192.254
0.408,42.795,4.440,4.440,245.962,209.903,192.355
0.409,42.992,4.460,4.460,246.129,209.935,192.452
0.410,43.173,4.478,4.478,246.283,209.968,192.543
0.411,43.336,4.491,4.491,246.419,209.999,192.626
0.413,43.475,4.501,4.501,246.535,210.026,192.698
0.414,43.587,4.506,4.506,246.628,210.047,192.758
0.415,43.667,4.505,4.505,246.693,210.060,192.803
0.416,43.716,4.500,4.500,246.731,210.064,192.832
0.417,43.739,4.493,4.493,246.747,210.062,192.848
0.419,43.747,4.484,4.484,246.747,210.056,192.854
0.420,43.761,4.476,4.476,246.737,210.047,192.852
0.421,43.779,4.470,4.470,246.722,210.040,192.846
0.422,43.797,4.468,4.468,246.707,210.035,192.837
0.424,43.809,4.471,4.471,246.699,210.035,192.828
0.425,43.819,4.481,4.481,246.703,210.043,192.822
0.426,43.846,4.497,4.498,246.724,210.060,192.822
0.427,43.900,4.519,4.520,246.769,210.089,192.830
0.428,43.984,4.544,4.544,246.839,210.131,192.848
0.430,44.092,4.569,4.570,246.930,210.183,192.873
0.431,44.219,4.594,4.595,247.038,210.243,192.905
0.432,44.359,4.615,4.616,247.157,210.308,192.941
0.433,44.508,4.632,4.632,247.282,210.377,192.979
0.434,44.658,4.641,4.641,247.410,210.445,193.019
0.436,44.805,4.642,4.641,247.536,210.511,193.057
0.437,44.942,4.635,4.634,247.654,210.572,193.093
0.438,45.065,4.624,4.622,247.759,210.626,193.124
0.439,45.167,4.609,4.606,247.848,210.671,193.149
0.441,45.246,4.591,4.590,247.917,210.704,193.167
0.442,45.305,4.574,4.573,247.970,210.726,193.178
0.443,45.347,4.558,4.559,248.010,210.739,193.183
0.444,45.376,4.546,4.548,248.039,210.745,193.181
0.445,45.399,4.538,4.544,248.061,210.743,193.174
0.447,45.423,4.534,4.545,248.079,210.735,193.162
0.448,45.450,4.533,4.550,248.096,210.722,193.145
0.449,45.484,4.534,4.558,248.116,210.705,193.123
0.450,45.524,4.536,4.568,248.141,210.685,193.098
0.451,45.574,4.536,4.577,248.175,210.664,193.069
0.453,45.632,4.535,4.586,248.219,210.642,193.038
0.454,45.697,4.530,4.593,248.271,210.620,193.005
0.455,45.767,4.521,4.596,248.328,210.599,192.972
0.456,45.837,4.507,4.596,248.388,210.580,192.940
0.458,45.906,4.489,4.592,248.448,210.563,192.911
0.459,45.970,4.468,4.586,248.505,210.549,192.885
0.460,46.026,4.447,4.578,248.556,210.539,192.864
0.461,46.072,4.425,4.570,248.599,210.533,192.849
0.462,46.104,4.404,4.561,248.630,210.533,192.842
0.464,46.123,4.384,4.553,248.648,210.539,192.844
0.465,46.139,4.369,4.547,248.651,210.550,192.854
0.466,46.162,4.357,4.542,248.644,210.565,192.870
0.467,46.189,4.348,4.538,248.631,210.581,192.888
0.468,46.213,4.343,4.536,248.618,210.594,192.903
0.470,46.228,4.341,4.535,248.610,210.602,192.913
0.471,46.229,4.340,4.534,248.611,210.602,192.913
0.472,46.253,4.342,4.533,248.626,210.591,192.899
0.473,46.306,4.345,4.532,248.661,210.566,192.867
0.475,46.396,4.349,4.530,248.721,210.525,192.814
0.476,46.529,4.353,4.527,248.810,210.464,192.736
0.477,46.709,4.357,4.523,248.931,210.383,192.631
0.478,46.927,4.360,4.516,249.079,210.285,192.503
0.479,47.174,4.362,4.507,249.246,210.174,192.359
0.481,47.439,4.361,4.495,249.426,210.055,192.205
0.482,47.713,4.358,4.480,249.613,209.934,192.046
0.483,47.985,4.351,4.460,249.798,209.813,191.889
0.484,48.244,4.340,4.437,249.977,209.698,191.739
0.485,48.482,4.325,4.408,250.141,209.594,191.603
0.487,48.688,4.306,4.375,250.284,209.504,191.485
0.488,48.851,4.284,4.340,250.399,209.434,191.393
0.489,48.966,4.261,4.305,250.482,209.387,191.329
0.490,49.036,4.239,4.272,250.535,209.359,191.291
0.492,49.071,4.220,4.242,250.561,209.346,191.274
0.493,49.077,4.205,4.217,250.567,209.344,191.271
0.494,49.092,4.195,4.200,250.554,209.348,191.279
0.495,49.122,4.194,4.193,250.529,209.356,191.292
