"T","Distance","Radius","FreeRadius","X","Y","Z"
0.000,0.000,1.275,1.275,-76.840,-55.816,-6.896
0.001,0.033,1.267,1.267,-76.812,-55.817,-6.912
0.002,0.067,1.259,1.259,-76.783,-55.818,-6.931
0.004,0.103,1.252,1.252,-76.754,-55.821,-6.952
0.005,0.143,1.245,1.245,-76.724,-55.827,-6.978
0.006,0.188,1.239,1.239,-76.694,-55.837,-7.010
0.007,0.241,1.233,1.233,-76.662,-55.852,-7.049
0.008,0.304,1.228,1.228,-76.629,-55.873,-7.098
0.010,0.378,1.223,1.223,-76.594,-55.900,-7.157
0.011,0.465,1.220,1.220,-76.557,-55.936,-7.228
0.012,0.569,1.218,1.218,-76.518,-55.980,-7.313
0.013,0.690,1.220,1.220,-76.477,-56.034,-7.413
0.014,0.830,1.226,1.226,-76.433,-56.098,-7.530
0.016,0.990,1.238,1.238,-76.388,-56.173,-7.664
0.017,1.165,1.258,1.258,-76.342,-56.258,-7.810
0.018,1.353,1.287,1.287,-76.297,-56.350,-7.967
0.019,1.548,1.326,1.326,-76.255,-56.449,-8.131
0.020,1.748,1.376,1.376,-76.219,-56.551,-8.298
0.022,1.948,1.438,1.438,-76.189,-56.657,-8.466
0.023,2.146,1.509,1.509,-76.167,-56.765,-8.630
0.024,2.337,1.587,1.587,-76.155,-56.871,-8.788
0.025,2.519,1.667,1.667,-76.156,-56.977,-8.937
0.027,2.689,1.747,1.747,-76.170,-57.078,-9.072
0.028,2.845,1.825,1.825,-76.199,-57.175,-9.191
0.029,2.988,1.896,1.896,-76.246,-57.265,-9.291
0.030,3.119,1.959,1.959,-76.308,-57.349,-9.372
0.031,3.244,2.010,2.010,-76.385,-57.425,-9.434
0.033,3.366,2.050,2.050,-76.472,-57.495,-9.481
0.034,3.486,2.079,2.079,-76.569,-57.558,-9.514
0.035,3.606,2.098,2.098,-76.672,-57.616,-9.535
0.036,3.725,2.108,2.108,-76.778,-57.668,-9.546
0.037,3.842,2.109,2.109,-76.886,-57.714,-9.549
0.039,3.957,2.103,2.103,-76.993,-57.755,-9.546
0.040,4.066,2.091,2.091,-77.096,-57.791,-9.539
0.041,4.168,2.072,2.072,-77.193,-57.822,-9.529
0.042,4.260,2.049,2.049,-77.281,-57.849,-9.519
0.043,4.342,2.021,2.021,-77.358,-57.871,-9.510
0.045,4.412,1.991,1.991,-77.426,-57.890,-9.501
0.046,4.474,1.960,1.960,-77.485,-57.905,-9.493
0.047,4.530,1.928,1.927,-77.539,-57.917,-9.484
0.048,4.581,1.896,1.896,-77.587,-57.926,-9.473
0.049,4.629,1.866,1.866,-77.634,-57.934,-9.459
0.051,4.678,1.839,1.839,-77.679,-57.939,-9.442
0.052,4.729,1.815,1.815,-77.725,-57.943,-9.421
0.053,4.784,1.795,1.795,-77.773,-57.946,-9.394
0.054,4.846,1.778,1.778,-77.826,-57.948,-9.361
0.055,4.918,1.764,1.764,-77.885,-57.950,-9.322
0.057,5.000,1.752,1.752,-77.952,-57.952,-9.274
0.058,5.093,1.742,1.743,-78.027,-57.955,-9.219
0.059,5.195,1.735,1.735,-78.109,-57.958,-9.157
0.060,5.304,1.729,1.729,-78.197,-57.961,-9.093
0.061,5.417,1.724,1.724,-78.288,-57.963,-9.027
0.063,5.530,1.720,1.719,-78.380,-57.965,-8.962
0.064,5.641,1.716,1.715,-78.473,-57.966,-8.900
0.065,5.748,1.712,1.710,-78.563,-57.966,-8.844
0.066,5.847,1.706,1.705,-78.650,-57.964,-8.795
0.067,5.938,1.699,1.697,-78.732,-57.960,-8.756
0.069,6.017,1.689,1.688,-78.806,-57.955,-8.729
0.070,6.084,1.676,1.675,-78.871,-57.947,-8.716
0.071,6.140,1.659,1.660,-78.926,-57.936,-8.720
0.072,6.188,1.639,1.641,-78.969,-57.925,-8.738
0.073,6.232,1.615,1.618,-79.001,-57.917,-8.768
0.075,6.274,1.589,1.594,-79.020,-57.915,-8.805
0.076,6.315,1.561,1.566,-79.028,-57.923,-8.845
0.077,6.360,1.532,1.538,-79.024,-57.944,-8.883
0.078,6.413,1.502,1.507,-79.008,-57.983,-8.916
0.080,6.483,1.473,1.476,-78.981,-58.042,-8.940
0.081,6.576,1.445,1.445,-78.941,-58.126,-8.950
0.082,6.699,1.418,1.414,-78.888,-58.237,-8.942
0.083,6.858,1.395,1.385,-78.824,-58.380,-8.913
0.084,7.060,1.377,1.362,-78.747,-58.557,-8.858
0.086,7.307,1.365,1.346,-78.658,-58.772,-8.773
0.087,7.596,1.361,1.340,-78.559,-59.020,-8.662
0.088,7.918,1.368,1.347,-78.452,-59.294,-8.529
0.089,8.265,1.385,1.370,-78.340,-59.585,-8.380
0.090,8.627,1.416,1.410,-78.224,-59.888,-8.218
0.092,8.995,1.462,1.471,-78.108,-60.195,-8.050
0.093,9.362,1.521,1.550,-77.993,-60.498,-7.879
0.094,9.716,1.590,1.643,-77.883,-60.790,-7.711
0.095,10.050,1.664,1.743,-77.779,-61.064,-7.551
0.096,10.355,1.742,1.845,-77.684,-61.313,-7.403
0.098,10.622,1.818,1.944,-77.601,-61.530,-7.272
0.099,10.841,1.889,2.034,-77.532,-61.707,-7.164
0.100,11.007,1.952,2.110,-77.477,-61.840,-7.080
0.101,11.126,2.002,2.166,-77.437,-61.933,-7.018
0.102,11.205,2.038,2.199,-77.409,-61.993,-6.975
0.104,11.250,2.062,2.212,-77.391,-62.024,-6.948
0.105,11.269,2.076,2.210,-77.383,-62.032,-6.933
0.106,11.281,2.082,2.197,-77.382,-62.021,-6.927
0.107,11.304,2.084,2.177,-77.386,-61.999,-6.926
0.108,11.335,2.084,2.154,-77.395,-61.969,-6.928
0.110,11.368,2.085,2.134,-77.406,-61.937,-6.928
0.111,11.399,2.088,2.118,-77.417,-61.909,-6.924
0.112,11.424,2.097,2.113,-77.428,-61.890,-6.912
0.113,11.449,2.111,2.117,-77.436,-61.886,-6.889
0.114,11.486,2.130,2.129,-77.441,-61.897,-6.854
0.116,11.537,2.150,2.146,-77.443,-61.922,-6.809
0.117,11.602,2.172,2.167,-77.443,-61.959,-6.756
0.118,11.677,2.194,2.190,-77.440,-62.005,-6.697
0.119,11.760,2.215,2.212,-77.436,-62.058,-6.633
0.120,11.848,2.233,2.232,-77.430,-62.116,-6.567
0.122,11.938,2.247,2.248,-77.423,-62.177,-6.501
0.123,12.027,2.257,2.259,-77.415,-62.237,-6.436
0.124,12.112,2.264,2.266,-77.407,-62.296,-6.375
0.125,12.191,2.268,2.270,-77.399,-62.350,-6.319
0.127,12.259,2.270,2.272,-77.391,-62.398,-6.271
0.128,12.316,2.271,2.273,-77.383,-62.437,-6.231
0.129,12.360,2.273,2.274,-77.376,-62.469,-6.200
0.130,12.394,2.276,2.276,-77.369,-62.493,-6.177
0.131,12.421,2.280,2.280,-77.361,-62.512,-6.161
0.133,12.441,2.287,2.287,-77.353,-62.527,-6.150
0.134,12.459,2.297,2.296,-77.342,-62.540,-6.144
0.135,12.476,2.308,2.308,-77.330,-62.551,-6.141
0.136,12.495,2.321,2.321,-77.314,-62.564,-6.141
0.137,12.519,2.335,2.334,-77.296,-62.578,-6.142
0.139,12.546,2.349,2.349,-77.274,-62.595,-6.143
0.140,12.580,2.363,2.363,-77.248,-62.617,-6.144
0.141,12.622,2.376,2.376,-77.218,-62.645,-6.143
0.142,12.672,2.389,2.389,-77.183,-62.681,-6.140
0.143,12.729,2.400,2.400,-77.143,-62.722,-6.134
0.145,12.793,2.409,2.409,-77.101,-62.768,-6.125
0.146,12.860,2.416,2.416,-77.056,-62.817,-6.115
0.147,12.930,2.422,2.422,-77.010,-62.869,-6.104
0.148,13.001,2.425,2.425,-76.963,-62.921,-6.091
0.149,13.072,2.425,2.425,-76.917,-62.973,-6.077
0.151,13.141,2.423,2.423,-76.872,-63.023,-6.062
0.152,13.206,2.417,2.417,-76.829,-63.070,-6.047
0.153,13.266,2.409,2.409,-76.789,-63.112,-6.032
0.154,13.320,2.398,2.398,-76.753,-63.148,-6.017
0.155,13.365,2.386,2.386,-76.722,-63.178,-6.002
0.157,13.402,2.374,2.374,-76.696,-63.200,-5.988
0.158,13.432,2.362,2.362,-76.675,-63.215,-5.974
0.159,13.455,2.352,2.352,-76.658,-63.225,-5.961
0.160,13.473,2.344,2.344,-76.645,-63.230,-5.950
0.161,13.487,2.339,2.339,-76.636,-63.232,-5.939
0.163,13.497,2.338,2.338,-76.631,-63.231,-5.930
0.164,13.506,2.340,2.340,-76.629,-63.228,-5.922
0.165,13.513,2.345,2.345,-76.630,-63.225,-5.916
0.166,13.519,2.351,2.352,-76.634,-63.222,-5.912
0.167,13.526,2.359,2.359,-76.640,-63.221,-5.909
0.169,13.534,2.366,2.366,-76.647,-63.221,-5.908
0.170,13.544,2.372,2.372,-76.657,-63.225,-5.909
0.171,13.557,2.377,2.377,-76.667,-63.233,-5.912
0.172,13.574,2.379,2.379,-76.677,-63.246,-5.916
0.173,13.594,2.377,2.377,-76.685,-63.264,-5.920
0.175,13.620,2.373,2.373,-76.692,-63.289,-5.924
0.176,13.652,2.367,2.367,-76.694,-63.321,-5.926
0.177,13.692,2.358,2.358,-76.693,-63.360,-5.927
0.178,13.741,2.348,2.348,-76.685,-63.409,-5.925
0.180,13.801,2.336,2.336,-76.672,-63.467,-5.921
0.181,13.872,2.323,2.323,-76.650,-63.535,-5.912
0.182,13.958,2.310,2.310,-76.620,-63.614,-5.899
0.183,14.059,2.296,2.296,-76.581,-63.704,-5.881
0.184,14.175,2.282,2.282,-76.530,-63.807,-5.858
0.186,14.306,2.270,2.270,-76.471,-63.920,-5.829
0.187,14.447,2.261,2.261,-76.404,-64.040,-5.796
0.188,14.597,2.255,2.255,-76.331,-64.166,-5.759
0.189,14.753,2.253,2.253,-76.254,-64.294,-5.718
0.190,14.911,2.257,2.257,-76.173,-64.424,-5.675
0.192,15.069,2.267,2.267,-76.091,-64.551,-5.630
0.193,15.225,2.284,2.284,-76.009,-64.675,-5.584
0.194,15.375,2.308,2.308,-75.929,-64.792,-5.536
0.195,15.516,2.337,2.337,-75.852,-64.900,-5.489
0.196,15.647,2.371,2.371,-75.779,-64.998,-5.441
0.198,15.763,2.407,2.407,-75.712,-65.082,-5.395
0.199,15.865,2.445,2.445,-75.653,-65.152,-5.350
0.200,15.954,2.484,2.484,-75.600,-65.209,-5.308
0.201,16.032,2.521,2.521,-75.554,-65.257,-5.267
0.202,16.099,2.557,2.557,-75.515,-65.296,-5.229
0.204,16.158,2.589,2.589,-75.482,-65.329,-5.194
0.205,16.208,2.617,2.617,-75.455,-65.358,-5.162
0.206,16.252,2.640,2.640,-75.434,-65.385,-5.134
0.207,16.291,2.658,2.658,-75.419,-65.412,-5.110
0.208,16.328,2.669,2.669,-75.409,-65.440,-5.090
0.210,16.364,2.674,2.674,-75.405,-65.473,-5.075
0.211,16.404,2.670,2.670,-75.405,-65.512,-5.065
0.212,16.451,2.658,2.658,-75.411,-65.559,-5.061
0.213,16.508,2.636,2.636,-75.422,-65.614,-5.062
0.214,16.573,2.607,2.607,-75.437,-65.677,-5.069
0.216,16.648,2.570,2.570,-75.458,-65.748,-5.082
0.217,16.733,2.528,2.528,-75.484,-65.826,-5.101
0.218,16.826,2.481,2.481,-75.514,-65.911,-5.127
0.219,16.930,2.431,2.431,-75.550,-66.002,-5.160
0.220,17.042,2.379,2.379,-75.591,-66.099,-5.200
0.222,17.164,2.327,2.327,-75.638,-66.201,-5.247
0.223,17.295,2.274,2.274,-75.689,-66.308,-5.302
0.224,17.435,2.223,2.223,-75.746,-66.420,-5.364
0.225,17.584,2.173,2.173,-75.809,-66.536,-5.434
0.227,17.742,2.124,2.124,-75.877,-66.655,-5.513
0.228,17.908,2.077,2.077,-75.950,-66.777,-5.598
0.229,18.081,2.031,2.031,-76.029,-66.901,-5.689
0.230,18.260,1.986,1.986,-76.113,-67.027,-5.785
0.231,18.444,1.943,1.943,-76.203,-67.153,-5.884
0.233,18.631,1.901,1.901,-76.298,-67.279,-5.985
0.234,18.821,1.861,1.861,-76.399,-67.403,-6.086
0.235,19.012,1.823,1.823,-76.505,-67.527,-6.187
0.236,19.204,1.789,1.789,-76.617,-67.647,-6.287
0.237,19.396,1.759,1.759,-76.734,-67.764,-6.384
0.239,19.587,1.733,1.733,-76.856,-67.877,-6.476
0.240,19.775,1.714,1.714,-76.984,-67.985,-6.563
0.241,19.961,1.701,1.701,-77.116,-68.088,-6.643
0.242,20.144,1.696,1.696,-77.252,-68.185,-6.717
0.243,20.321,1.698,1.698,-77.388,-68.277,-6.783
0.245,20.491,1.708,1.708,-77.524,-68.362,-6.842
0.246,20.654,1.722,1.722,-77.657,-68.441,-6.893
0.247,20.807,1.738,1.738,-77.784,-68.514,-6.934
0.248,20.949,1.755,1.755,-77.905,-68.580,-6.967
0.249,21.078,1.770,1.770,-78.018,-68.640,-6.991
0.251,21.193,1.782,1.782,-78.120,-68.693,-7.004
0.252,21.294,1.788,1.788,-78.209,-68.739,-7.007
0.253,21.378,1.785,1.785,-78.283,-68.777,-7.000
0.254,21.447,1.774,1.774,-78.341,-68.808,-6.981
0.255,21.503,1.757,1.757,-78.383,-68.833,-6.952
0.257,21.555,1.734,1.734,-78.412,-68.854,-6.914
0.258,21.607,1.708,1.708,-78.429,-68.871,-6.868
0.259,21.662,1.680,1.680,-78.437,-68.887,-6.817
0.260,21.720,1.652,1.652,-78.438,-68.904,-6.760
0.261,21.783,1.625,1.625,-78.434,-68.923,-6.701
0.263,21.849,1.602,1.602,-78.428,-68.947,-6.640
0.264,21.917,1.584,1.584,-78.423,-68.976,-6.578
0.265,21.988,1.570,1.570,-78.419,-69.014,-6.518
0.266,22.062,1.558,1.558,-78.420,-69.060,-6.461
0.267,22.141,1.549,1.549,-78.428,-69.118,-6.408
0.269,22.227,1.540,1.540,-78.444,-69.189,-6.361
0.270,22.323,1.531,1.531,-78.469,-69.271,-6.318
0.271,22.426,1.521,1.521,-78.501,-69.362,-6.281
0.272,22.536,1.509,1.509,-78.538,-69.460,-6.249
0.273,22.651,1.493,1.493,-78.579,-69.564,-6.220
0.275,22.769,1.475,1.475,-78.623,-69.670,-6.194
0.276,22.888,1.455,1.455,-78.669,-69.778,-6.172
0.277,23.005,1.433,1.433,-78.714,-69.884,-6.152
0.278,23.119,1.412,1.412,-78.759,-69.987,-6.133
0.280,23.226,1.391,1.391,-78.800,-70.084,-6.116
0.281,23.325,1.372,1.372,-78.838,-70.174,-6.100
0.282,23.413,1.356,1.356,-78.870,-70.255,-6.085
0.283,23.489,1.343,1.343,-78.896,-70.324,-6.069
0.284,23.554,1.335,1.335,-78.917,-70.384,-6.054
0.286,23.609,1.330,1.330,-78.932,-70.434,-6.039
0.287,23.655,1.328,1.328,-78.943,-70.477,-6.025
0.288,23.693,1.329,1.329,-78.950,-70.511,-6.011
0.289,23.724,1.331,1.331,-78.954,-70.540,-5.999
0.290,23.749,1.335,1.335,-78.954,-70.563,-5.988
0.292,23.770,1.338,1.338,-78.953,-70.582,-5.979
0.293,23.788,1.342,1.342,-78.950,-70.597,-5.972
0.294,23.802,1.345,1.345,-78.947,-70.610,-5.966
0.295,23.814,1.347,1.347,-78.943,-70.621,-5.963
0.296,23.825,1.348,1.348,-78.939,-70.631,-5.962
0.298,23.836,1.348,1.348,-78.936,-70.641,-5.963
0.299,23.846,1.348,1.348,-78.933,-70.650,-5.966
0.300,23.855,1.348,1.348,-78.931,-70.658,-5.970
0.301,23.863,1.347,1.347,-78.930,-70.665,-5.974
0.302,23.869,1.346,1.346,-78.929,-70.669,-5.979
0.304,23.873,1.345,1.345,-78.929,-70.671,-5.982
0.305,23.875,1.344,1.344,-78.930,-70.670,-5.984
0.306,23.879,1.344,1.344,-78.931,-70.666,-5.984
0.307,23.887,1.343,1.343,-78.934,-70.659,-5.982
0.308,23.900,1.343,1.343,-78.937,-70.648,-5.976
0.310,23.919,1.344,1.344,-78.940,-70.632,-5.967
0.311,23.944,1.345,1.345,-78.945,-70.612,-5.953
0.312,23.972,1.347,1.347,-78.950,-70.589,-5.937
0.313,24.002,1.350,1.350,-78.955,-70.565,-5.920
0.314,24.030,1.355,1.355,-78.960,-70.543,-5.904
0.316,24.052,1.359,1.359,-78.964,-70.525,-5.892
0.317,24.067,1.363,1.363,-78.967,-70.512,-5.885
0.318,24.071,1.364,1.364,-78.969,-70.508,-5.885
0.319,24.083,1.364,1.364,-78.969,-70.515,-5.896
0.320,24.113,1.360,1.360,-78.966,-70.535,-5.918
0.322,24.163,1.351,1.351,-78.961,-70.569,-5.953
0.323,24.236,1.337,1.337,-78.953,-70.621,-6.005
0.324,24.337,1.317,1.317,-78.941,-70.692,-6.075
0.325,24.465,1.292,1.292,-78.926,-70.784,-6.163
0.327,24.617,1.264,1.264,-78.907,-70.893,-6.267
0.328,24.787,1.235,1.235,-78.886,-71.015,-6.384
0.329,24.971,1.207,1.207,-78.862,-71.146,-6.511
0.330,25.164,1.183,1.183,-78.836,-71.282,-6.645
0.331,25.359,1.164,1.164,-78.809,-71.419,-6.782
0.333,25.553,1.153,1.153,-78.781,-71.553,-6.919
0.334,25.740,1.151,1.151,-78.752,-71.680,-7.053
0.335,25.914,1.160,1.160,-78.724,-71.796,-7.181
0.336,26.073,1.176,1.176,-78.695,-71.896,-7.299
0.337,26.209,1.197,1.197,-78.668,-71.978,-7.405
0.339,26.320,1.222,1.222,-78.642,-72.037,-7.495
0.340,26.405,1.247,1.247,-78.617,-72.072,-7.569
0.341,26.471,1.270,1.270,-78.594,-72.086,-7.629
0.342,26.525,1.290,1.290,-78.572,-72.082,-7.678
0.343,26.574,1.302,1.302,-78.551,-72.063,-7.718
0.345,26.624,1.307,1.307,-78.532,-72.032,-7.753
0.346,26.678,1.304,1.304,-78.513,-71.993,-7.785
0.347,26.736,1.294,1.294,-78.495,-71.948,-7.816
0.348,26.797,1.281,1.281,-78.478,-71.900,-7.849
0.349,26.860,1.264,1.264,-78.462,-71.852,-7.887
0.351,26.925,1.246,1.246,-78.446,-71.808,-7.933
0.352,26.994,1.228,1.228,-78.430,-71.771,-7.989
0.353,27.069,1.212,1.212,-78.415,-71.743,-8.057
0.354,27.152,1.199,1.199,-78.401,-71.725,-8.136
0.355,27.240,1.190,1.190,-78.390,-71.718,-8.224
0.357,27.334,1.184,1.184,-78.382,-71.721,-8.317
0.358,27.430,1.182,1.182,-78.379,-71.734,-8.412
0.359,27.528,1.183,1.183,-78.381,-71.758,-8.507
0.360,27.625,1.186,1.186,-78.391,-71.792,-8.598
0.361,27.722,1.192,1.192,-78.410,-71.837,-8.682
0.363,27.819,1.201,1.201,-78.438,-71.892,-8.757
0.364,27.918,1.212,1.212,-78.477,-71.957,-8.819
0.365,28.020,1.224,1.224,-78.527,-72.033,-8.866
0.366,28.132,1.240,1.240,-78.591,-72.120,-8.894
0.367,28.256,1.257,1.257,-78.669,-72.217,-8.902
0.369,28.395,1.277,1.277,-78.758,-72.323,-8.892
0.370,28.546,1.301,1.301,-78.855,-72.436,-8.869
0.371,28.708,1.328,1.328,-78.958,-72.557,-8.835
0.372,28.876,1.358,1.358,-79.063,-72.682,-8.795
0.373,29.047,1.393,1.393,-79.167,-72.811,-8.752
0.375,29.218,1.432,1.432,-79.268,-72.942,-8.710
0.376,29.386,1.474,1.474,-79.363,-73.075,-8.673
0.377,29.546,1.520,1.520,-79.448,-73.207,-8.644
0.378,29.697,1.568,1.568,-79.521,-73.338,-8.626
0.380,29.837,1.618,1.618,-79.579,-73.466,-8.624
0.381,29.968,1.669,1.669,-79.618,-73.590,-8.641
0.382,30.094,1.720,1.720,-79.639,-73.708,-8.678
0.383,30.219,1.772,1.772,-79.645,-73.821,-8.731
0.384,30.345,1.823,1.823,-79.638,-73.929,-8.797
0.386,30.472,1.872,1.872,-79.622,-74.030,-8.871
0.387,30.597,1.919,1.919,-79.600,-74.124,-8.951
0.388,30.720,1.963,1.963,-79.575,-74.212,-9.032
0.389,30.835,2.003,2.003,-79.551,-74.293,-9.111
0.390,30.941,2.038,2.038,-79.530,-74.366,-9.184
0.392,31.033,2.067,2.067,-79.517,-74.432,-9.248
0.393,31.109,2.089,2.089,-79.513,-74.490,-9.297
0.394,31.169,2.104,2.104,-79.523,-74.539,-9.330
0.395,31.219,2.111,2.111,-79.550,-74.580,-9.342
0.396,31.274,2.111,2.111,-79.594,-74.612,-9.334
0.398,31.343,2.105,2.105,-79.654,-74.636,-9.311
0.399,31.428,2.095,2.095,-79.730,-74.653,-9.276
0.400,31.529,2.082,2.082,-79.820,-74.662,-9.232
0.401,31.644,2.067,2.067,-79.925,-74.665,-9.184
0.402,31.771,2.052,2.052,-80.043,-74.662,-9.136
0.404,31.909,2.037,2.037,-80.173,-74.652,-9.091
0.405,32.056,2.026,2.026,-80.314,-74.638,-9.053
0.406,32.212,2.017,2.017,-80.466,-74.618,-9.026
0.407,32.377,2.011,2.011,-80.629,-74.594,-9.014
0.408,32.551,2.010,2.010,-80.800,-74.565,-9.020
0.410,32.735,2.012,2.012,-80.980,-74.533,-9.047
0.411,32.930,2.020,2.020,-81.165,-74.498,-9.095
0.412,33.134,2.032,2.032,-81.355,-74.461,-9.159
0.413,33.345,2.050,2.050,-81.546,-74.422,-9.239
0.414,33.560,2.074,2.074,-81.738,-74.383,-9.330
0.416,33.778,2.103,2.103,-81.926,-74.344,-9.431
0.417,33.995,2.137,2.137,-82.110,-74.305,-9.539
0.418,34.208,2.174,2.174,-82.287,-74.269,-9.652
0.419,34.414,2.214,2.214,-82.455,-74.234,-9.767
0.420,34.610,2.254,2.254,-82.612,-74.203,-9.881
0.422,34.793,2.293,2.293,-82.755,-74.176,-9.992
0.423,34.960,2.331,2.331,-82.883,-74.153,-10.097
0.424,35.109,2.366,2.366,-82.994,-74.135,-10.194
0.425,35.241,2.397,2.397,-83.090,-74.121,-10.284
0.427,35.356,2.423,2.423,-83.170,-74.110,-10.365
0.428,35.456,2.444,2.444,-83.237,-74.099,-10.439
0.429,35.541,2.461,2.461,-83.290,-74.089,-10.503
0.430,35.611,2.472,2.472,-83.332,-74.078,-10.559
0.431,35.669,2.479,2.479,-83.363,-74.065,-10.606
0.433,35.714,2.480,2.480,-83.383,-74.049,-10.644
0.434,35.751,2.475,2.475,-83.395,-74.029,-10.672
0.435,35.783,2.465,2.465,-83.398,-74.003,-10.690
0.436,35.817,2.450,2.450,-83.395,-73.970,-10.699
0.437,35.859,2.431,2.431,-83.385,-73.930,-10.697
0.439,35.909,2.410,2.410,-83.371,-73.882,-10.687
0.440,35.965,2.388,2.388,-83.358,-73.829,-10.672
0.441,36.025,2.366,2.366,-83.349,-73.774,-10.654
0.442,36.084,2.346,2.346,-83.347,-73.716,-10.638
0.443,36.143,2.328,2.328,-83.356,-73.660,-10.625
0.445,36.203,2.315,2.315,-83.380,-73.605,-10.619
0.446,36.269,2.307,2.307,-83.423,-73.556,-10.623
0.447,36.348,2.306,2.306,-83.488,-73.512,-10.641
0.448,36.451,2.314,2.314,-83.578,-73.477,-10.674
0.449,36.585,2.332,2.332,-83.699,-73.452,-10.727
0.451,36.757,2.362,2.362,-83.852,-73.439,-10.802
0.452,36.970,2.405,2.405,-84.041,-73.439,-10.902
0.453,37.223,2.463,2.463,-84.262,-73.452,-11.022
0.454,37.505,2.537,2.537,-84.509,-73.473,-11.159
0.455,37.811,2.628,2.628,-84.775,-73.502,-11.307
0.457,38.132,2.734,2.734,-85.054,-73.534,-11.461
0.458,38.460,2.849,2.850,-85.342,-73.569,-11.616
0.459,38.788,2.969,2.969,-85.630,-73.603,-11.768
0.460,39.106,3.086,3.087,-85.914,-73.634,-11.910
0.461,39.409,3.198,3.198,-86.187,-73.659,-12.038
0.463,39.688,3.298,3.298,-86.443,-73.676,-12.148
0.464,39.936,3.380,3.381,-86.676,-73.682,-12.233
0.465,40.148,3.441,3.441,-86.880,-73.676,-12.289
0.466,40.324,3.479,3.478,-87.052,-73.654,-12.314
0.467,40.471,3.496,3.495,-87.195,-73.620,-12.311
0.469,40.601,3.497,3.496,-87.314,-73.573,-12.284
0.470,40.723,3.486,3.485,-87.411,-73.516,-12.237
0.471,40.845,3.467,3.466,-87.490,-73.449,-12.174
0.472,40.970,3.444,3.443,-87.557,-73.375,-12.098
0.473,41.099,3.421,3.421,-87.614,-73.295,-12.015
0.475,41.232,3.403,3.403,-87.665,-73.210,-11.926
0.476,41.367,3.392,3.393,-87.715,-73.121,-11.838
0.477,41.501,3.389,3.390,-87.767,-73.030,-11.753
0.478,41.634,3.394,3.396,-87.825,-72.939,-11.675
0.480,41.766,3.406,3.408,-87.893,-72.848,-11.609
0.481,41.895,3.425,3.427,-87.971,-72.759,-11.557
0.482,42.025,3.450,3.452,-88.057,-72.671,-11.517
0.483,42.154,3.481,3.483,-88.149,-72.584,-11.492
0.484,42.284,3.518,3.519,-88.245,-72.498,-11.481
0.486,42.413,3.560,3.559,-88.343,-72.412,-11.483
0.487,42.542,3.606,3.603,-88.439,-72.328,-11.500
0.488,42.672,3.654,3.649,-88.532,-72.244,-11.532
0.489,42.801,3.704,3.696,-88.619,-72.160,-11.579
0.490,42.932,3.752,3.743,-88.698,-72.077,-11.640
0.492,43.064,3.798,3.789,-88.768,-71.994,-11.717
0.493,43.201,3.840,3.832,-88.824,-71.910,-11.809
0.494,43.343,3.876,3.872,-88.867,-71.827,-11.916
0.495,43.493,3.905,3.906,-88.896,-71.744,-12.037
0.496,43.649,3.925,3.934,-88.916,-71.663,-12.170
0.498,43.812,3.939,3.957,-88.930,-71.582,-12.311
0.499,43.980,3.945,3.974,-88.939,-71.505,-12.459
