"T","Distance","Radius","FreeRadius","X","Y","Z"
0.000,0.000,1.775,1.775,242.185,205.725,208.694
0.001,0.020,1.782,1.782,242.187,205.706,208.688
0.003,0.040,1.789,1.789,242.190,205.688,208.681
0.004,0.059,1.796,1.796,242.193,205.670,208.674
0.006,0.078,1.802,1.802,242.196,205.653,208.666
0.007,0.097,1.808,1.808,242.201,205.637,208.657
0.009,0.116,1.813,1.813,242.206,205.623,208.647
0.010,0.135,1.817,1.817,242.213,205.610,208.635
0.012,0.154,1.820,1.820,242.221,205.598,208.622
0.013,0.174,1.823,1.823,242.232,205.590,208.607
0.015,0.196,1.825,1.825,242.244,205.583,208.589
0.016,0.221,1.827,1.827,242.258,205.580,208.569
0.017,0.249,1.828,1.828,242.274,205.579,208.547
0.019,0.279,1.830,1.830,242.292,205.580,208.523
0.020,0.311,1.831,1.831,242.312,205.583,208.497
0.022,0.344,1.833,1.833,242.331,205.587,208.472
0.023,0.376,1.835,1.835,242.351,205.591,208.446
0.025,0.407,1.836,1.836,242.369,205.595,208.422
0.026,0.435,1.838,1.838,242.387,205.597,208.400
0.028,0.460,1.838,1.838,242.402,205.598,208.380
0.029,0.480,1.838,1.838,242.414,205.597,208.364
0.031,0.496,1.837,1.837,242.423,205.593,208.352
0.032,0.508,1.835,1.835,242.428,205.584,208.344
0.034,0.520,1.832,1.832,242.430,205.573,208.342
0.035,0.534,1.828,1.828,242.429,205.559,208.342
0.036,0.547,1.824,1.824,242.427,205.547,208.343
0.038,0.557,1.819,1.819,242.426,205.536,208.343
0.039,0.564,1.813,1.813,242.429,205.531,208.340
0.041,0.575,1.808,1.808,242.436,205.532,208.332
0.042,0.597,1.803,1.803,242.449,205.541,208.316
0.044,0.636,1.799,1.798,242.470,205.562,208.291
0.045,0.694,1.796,1.796,242.501,205.596,208.256
0.047,0.775,1.797,1.797,242.543,205.645,208.206
0.048,0.882,1.801,1.801,242.599,205.711,208.142
0.050,1.017,1.810,1.810,242.668,205.794,208.062
0.051,1.176,1.825,1.825,242.749,205.893,207.969
0.052,1.354,1.845,1.845,242.840,206.006,207.864
0.054,1.549,1.871,1.871,242.940,206.129,207.752
0.055,1.757,1.902,1.903,243.047,206.262,207.633
0.057,1.973,1.939,1.940,243.159,206.400,207.510
0.058,2.195,1.982,1.982,243.274,206.544,207.386
0.060,2.418,2.030,2.030,243.390,206.689,207.263
0.061,2.639,2.083,2.083,243.507,206.834,207.144
0.063,2.855,2.141,2.140,243.622,206.977,207.030
0.064,3.061,2.204,2.202,243.733,207.115,206.925
0.066,3.255,2.269,2.267,243.838,207.247,206.829
0.067,3.436,2.337,2.335,243.937,207.369,206.739
0.069,3.602,2.408,2.405,244.026,207.480,206.654
0.070,3.752,2.479,2.478,244.104,207.578,206.571
0.071,3.885,2.550,2.551,244.170,207.661,206.490
0.073,4.003,2.619,2.623,244.220,207.726,206.406
0.074,4.106,2.684,2.691,244.255,207.771,206.319
0.076,4.203,2.740,2.749,244.270,207.795,206.227
0.077,4.304,2.785,2.794,244.266,207.795,206.127
0.079,4.420,2.814,2.821,244.240,207.768,206.017
0.080,4.562,2.825,2.828,244.189,207.714,205.895
0.082,4.734,2.815,2.810,244.116,207.633,205.762
0.083,4.932,2.784,2.769,244.024,207.529,205.620
0.085,5.152,2.737,2.712,243.916,207.408,205.472
0.086,5.389,2.678,2.646,243.795,207.273,205.320
0.087,5.637,2.611,2.577,243.665,207.129,205.166
0.089,5.890,2.540,2.513,243.529,206.980,205.012
0.090,6.142,2.470,2.461,243.391,206.831,204.862
0.092,6.388,2.405,2.426,243.255,206.686,204.718
0.093,6.622,2.347,2.410,243.123,206.550,204.582
0.095,6.838,2.297,2.408,242.999,206.426,204.456
0.096,7.030,2.257,2.415,242.886,206.319,204.342
0.098,7.199,2.227,2.428,242.784,206.230,204.242
0.099,7.348,2.209,2.442,242.689,206.157,204.153
0.101,7.482,2.203,2.453,242.598,206.100,204.073
0.102,7.605,2.212,2.456,242.508,206.056,204.002
0.103,7.722,2.231,2.453,242.415,206.025,203.937
0.105,7.839,2.258,2.442,242.316,206.005,203.878
0.106,7.961,2.289,2.427,242.209,205.995,203.822
0.108,8.092,2.318,2.409,242.089,205.994,203.768
0.109,8.238,2.343,2.388,241.953,205.999,203.716
0.111,8.402,2.360,2.367,241.798,206.011,203.662
0.112,8.587,2.364,2.346,241.622,206.027,203.607
0.114,8.792,2.358,2.326,241.427,206.047,203.549
0.115,9.011,2.343,2.308,241.217,206.070,203.490
0.117,9.241,2.322,2.292,240.997,206.096,203.429
0.118,9.475,2.300,2.278,240.772,206.125,203.368
0.120,9.710,2.278,2.267,240.547,206.155,203.307
0.121,9.941,2.260,2.259,240.327,206.187,203.247
0.122,10.163,2.248,2.253,240.116,206.220,203.187
0.124,10.372,2.242,2.251,239.918,206.253,203.129
0.125,10.562,2.243,2.252,239.739,206.287,203.072
0.127,10.730,2.248,2.256,239.584,206.320,203.019
0.128,10.871,2.259,2.264,239.456,206.352,202.968
0.130,10.988,2.272,2.275,239.354,206.382,202.921
0.131,11.084,2.290,2.290,239.274,206.412,202.877
0.133,11.161,2.309,2.307,239.215,206.439,202.836
0.134,11.223,2.330,2.327,239.172,206.463,202.798
0.136,11.273,2.351,2.348,239.143,206.486,202.764
0.137,11.314,2.371,2.368,239.124,206.505,202.733
0.138,11.347,2.388,2.387,239.113,206.520,202.706
0.140,11.374,2.402,2.402,239.107,206.533,202.682
0.141,11.396,2.412,2.412,239.103,206.541,202.662
0.143,11.414,2.416,2.417,239.097,206.544,202.646
0.144,11.430,2.416,2.417,239.087,206.544,202.633
0.146,11.448,2.414,2.415,239.073,206.540,202.623
0.147,11.468,2.411,2.411,239.056,206.534,202.615
0.149,11.490,2.409,2.409,239.036,206.526,202.607
0.150,11.515,2.409,2.409,239.014,206.520,202.599
0.152,11.540,2.413,2.413,238.990,206.515,202.589
0.153,11.567,2.423,2.423,238.966,206.513,202.577
0.155,11.597,2.436,2.436,238.942,206.515,202.561
0.156,11.629,2.451,2.451,238.918,206.523,202.541
0.157,11.667,2.466,2.466,238.895,206.538,202.515
0.159,11.712,2.479,2.479,238.874,206.561,202.482
0.160,11.766,2.488,2.488,238.856,206.592,202.441
0.162,11.829,2.491,2.491,238.839,206.630,202.395
0.163,11.898,2.487,2.487,238.824,206.673,202.343
0.165,11.971,2.477,2.477,238.812,206.718,202.287
0.166,12.045,2.464,2.464,238.801,206.763,202.228
0.168,12.120,2.449,2.449,238.792,206.806,202.167
0.169,12.193,2.434,2.434,238.785,206.845,202.106
0.171,12.262,2.421,2.421,238.780,206.877,202.046
0.172,12.325,2.411,2.411,238.776,206.901,201.987
0.173,12.382,2.405,2.405,238.774,206.913,201.932
0.175,12.433,2.402,2.402,238.774,206.913,201.880
0.176,12.483,2.401,2.401,238.774,206.899,201.833
0.178,12.535,2.400,2.400,238.773,206.875,201.787
0.179,12.591,2.397,2.397,238.771,206.846,201.738
0.181,12.652,2.391,2.391,238.763,206.817,201.685
0.182,12.720,2.380,2.380,238.750,206.791,201.624
0.184,12.798,2.365,2.365,238.729,206.772,201.551
0.185,12.890,2.350,2.350,238.699,206.766,201.464
0.187,13.003,2.338,2.338,238.657,206.777,201.360
0.188,13.144,2.334,2.334,238.602,206.808,201.234
0.190,13.318,2.343,2.343,238.533,206.864,201.085
0.191,13.532,2.368,2.368,238.447,206.950,200.909
0.192,13.787,2.414,2.414,238.345,207.066,200.706
0.194,14.075,2.480,2.480,238.229,207.207,200.482
0.195,14.387,2.561,2.561,238.104,207.365,200.244
0.197,14.715,2.651,2.651,237.973,207.537,199.998
0.198,15.048,2.741,2.741,237.839,207.714,199.750
0.200,15.379,2.827,2.827,237.706,207.892,199.505
0.201,15.696,2.902,2.902,237.577,208.065,199.272
0.203,15.993,2.958,2.958,237.455,208.226,199.054
0.204,16.258,2.995,2.995,237.345,208.369,198.860
0.206,16.484,3.016,3.016,237.249,208.489,198.695
0.207,16.660,3.026,3.026,237.171,208.579,198.565
0.208,16.785,3.030,3.030,237.112,208.638,198.471
0.210,16.867,3.032,3.032,237.070,208.671,198.410
0.211,16.911,3.036,3.036,237.042,208.681,198.376
0.213,16.932,3.046,3.046,237.028,208.672,198.365
0.214,16.956,3.065,3.065,237.024,208.649,198.372
0.216,16.995,3.090,3.090,237.028,208.616,198.393
0.217,17.045,3.118,3.118,237.039,208.578,198.423
0.219,17.100,3.148,3.148,237.054,208.537,198.457
0.220,17.153,3.178,3.178,237.072,208.500,198.490
0.222,17.199,3.204,3.204,237.090,208.469,198.519
0.223,17.231,3.226,3.226,237.106,208.449,198.538
0.224,17.249,3.241,3.241,237.119,208.440,198.546
0.226,17.258,3.250,3.250,237.128,208.438,198.544
0.227,17.271,3.253,3.253,237.133,208.442,198.533
0.229,17.291,3.248,3.248,237.133,208.446,198.513
0.230,17.319,3.237,3.237,237.128,208.449,198.486
0.232,17.353,3.218,3.218,237.117,208.447,198.453
0.233,17.397,3.192,3.192,237.100,208.436,198.415
0.235,17.450,3.159,3.159,237.075,208.414,198.373
0.236,17.517,3.122,3.122,237.044,208.376,198.327
0.238,17.601,3.082,3.082,237.004,208.321,198.279
0.239,17.704,3.042,3.042,236.955,208.245,198.230
0.241,17.826,3.002,3.002,236.899,208.149,198.180
0.242,17.963,2.966,2.966,236.835,208.039,198.127
0.243,18.113,2.934,2.934,236.766,207.917,198.074
0.245,18.271,2.907,2.907,236.692,207.790,198.017
0.246,18.432,2.884,2.884,236.616,207.661,197.958
0.248,18.593,2.864,2.864,236.537,207.535,197.897
0.249,18.751,2.846,2.846,236.457,207.416,197.832
0.251,18.901,2.829,2.829,236.377,207.308,197.763
0.252,19.041,2.813,2.813,236.299,207.217,197.690
0.254,19.171,2.796,2.796,236.223,207.146,197.613
0.255,19.289,2.778,2.778,236.151,207.100,197.531
0.257,19.402,2.759,2.759,236.083,207.077,197.445
0.258,19.513,2.739,2.739,236.018,207.073,197.354
0.259,19.626,2.717,2.717,235.957,207.084,197.259
0.261,19.743,2.694,2.694,235.900,207.108,197.161
0.262,19.863,2.669,2.669,235.845,207.140,197.059
0.264,19.986,2.641,2.641,235.793,207.177,196.953
0.265,20.110,2.613,2.613,235.745,207.214,196.845
0.267,20.235,2.583,2.583,235.698,207.249,196.734
0.268,20.360,2.553,2.553,235.654,207.277,196.621
0.270,20.484,2.524,2.524,235.613,207.296,196.506
0.271,20.608,2.496,2.496,235.573,207.300,196.388
0.273,20.732,2.470,2.470,235.535,207.292,196.271
0.274,20.856,2.447,2.447,235.500,207.273,196.153
0.276,20.980,2.426,2.426,235.468,207.244,196.037
0.277,21.103,2.408,2.408,235.438,207.206,195.925
0.278,21.223,2.392,2.392,235.411,207.162,195.816
0.280,21.340,2.378,2.378,235.387,207.113,195.713
0.281,21.452,2.367,2.367,235.366,207.059,195.616
0.283,21.558,2.357,2.357,235.350,207.004,195.527
0.284,21.656,2.349,2.349,235.336,206.948,195.448
0.286,21.745,2.342,2.342,235.327,206.894,195.378
0.287,21.824,2.335,2.335,235.322,206.841,195.320
0.289,21.894,2.328,2.328,235.321,206.790,195.272
0.290,21.958,2.319,2.319,235.325,206.740,195.231
0.292,22.019,2.309,2.309,235.332,206.690,195.197
0.293,22.078,2.295,2.295,235.343,206.640,195.168
0.294,22.138,2.278,2.278,235.359,206.589,195.141
0.296,22.200,2.258,2.258,235.378,206.536,195.115
0.297,22.265,2.236,2.236,235.401,206.481,195.089
0.299,22.336,2.212,2.212,235.428,206.422,195.060
0.300,22.414,2.186,2.186,235.459,206.359,195.028
0.302,22.499,2.160,2.160,235.494,206.291,194.989
0.303,22.593,2.135,2.135,235.532,206.218,194.944
0.305,22.695,2.110,2.110,235.572,206.139,194.892
0.306,22.804,2.085,2.085,235.610,206.055,194.835
0.308,22.920,2.062,2.062,235.644,205.964,194.773
0.309,23.040,2.040,2.040,235.672,205.867,194.707
0.310,23.166,2.019,2.019,235.691,205.763,194.639
0.312,23.298,1.999,1.999,235.699,205.652,194.568
0.313,23.435,1.981,1.981,235.694,205.534,194.497
0.315,23.581,1.965,1.965,235.673,205.409,194.426
0.316,23.737,1.952,1.952,235.633,205.276,194.355
0.318,23.905,1.941,1.941,235.573,205.135,194.287
0.319,24.087,1.934,1.934,235.491,204.986,194.220
0.321,24.283,1.931,1.931,235.391,204.831,194.155
0.322,24.490,1.933,1.933,235.275,204.671,194.090
0.324,24.708,1.941,1.941,235.147,204.507,194.025
0.325,24.934,1.953,1.953,235.011,204.341,193.959
0.327,25.164,1.970,1.970,234.869,204.173,193.890
0.328,25.396,1.990,1.990,234.726,204.005,193.819
0.329,25.627,2.010,2.010,234.584,203.839,193.743
0.331,25.856,2.030,2.030,234.446,203.675,193.662
0.332,26.079,2.049,2.049,234.317,203.515,193.576
0.334,26.294,2.064,2.064,234.200,203.360,193.484
0.335,26.501,2.077,2.077,234.096,203.211,193.383
0.337,26.700,2.091,2.091,234.007,203.069,193.275
0.338,26.893,2.109,2.109,233.934,202.935,193.158
0.340,27.081,2.135,2.135,233.877,202.808,193.032
0.341,27.265,2.173,2.173,233.838,202.690,192.896
0.343,27.449,2.226,2.226,233.816,202.582,192.750
0.344,27.635,2.297,2.297,233.813,202.482,192.592
0.345,27.827,2.390,2.390,233.830,202.394,192.423
0.347,28.028,2.500,2.500,233.868,202.316,192.241
0.348,28.242,2.628,2.628,233.927,202.250,192.046
0.350,28.472,2.770,2.770,234.008,202.195,191.838
0.351,28.718,2.925,2.925,234.109,202.153,191.617
0.353,28.978,3.092,3.092,234.227,202.121,191.388
0.354,29.246,3.268,3.268,234.357,202.099,191.155
0.356,29.519,3.449,3.449,234.495,202.085,190.920
0.357,29.790,3.628,3.628,234.636,202.078,190.689
0.359,30.055,3.800,3.800,234.776,202.077,190.464
0.360,30.308,3.957,3.957,234.911,202.081,190.249
0.362,30.544,4.092,4.092,235.036,202.088,190.049
0.363,30.758,4.200,4.200,235.148,202.097,189.867
0.364,30.943,4.273,4.273,235.241,202.108,189.708
0.366,31.095,4.313,4.313,235.312,202.118,189.573
0.367,31.214,4.326,4.326,235.360,202.128,189.465
0.369,31.303,4.321,4.321,235.388,202.137,189.381
0.370,31.366,4.303,4.303,235.400,202.146,189.320
0.372,31.408,4.282,4.282,235.399,202.154,189.278
0.373,31.435,4.264,4.264,235.387,202.160,189.255
0.375,31.457,4.255,4.255,235.367,202.166,189.249
0.376,31.482,4.258,4.258,235.343,202.171,189.256
0.378,31.515,4.269,4.269,235.318,202.176,189.276
0.379,31.553,4.284,4.284,235.294,202.179,189.306
0.380,31.596,4.300,4.300,235.276,202.181,189.345
0.382,31.642,4.315,4.315,235.265,202.182,189.389
0.383,31.689,4.324,4.324,235.261,202.182,189.436
0.385,31.736,4.325,4.325,235.264,202.182,189.483
0.386,31.778,4.318,4.318,235.270,202.181,189.524
0.388,31.811,4.307,4.307,235.279,202.180,189.557
0.389,31.833,4.293,4.293,235.288,202.178,189.577
0.391,31.842,4.281,4.281,235.296,202.177,189.580
0.392,31.860,4.272,4.272,235.301,202.176,189.563
0.394,31.902,4.270,4.270,235.301,202.175,189.521
0.395,31.973,4.277,4.277,235.294,202.175,189.450
0.397,32.077,4.294,4.294,235.279,202.177,189.348
0.398,32.217,4.321,4.321,235.254,202.179,189.209
0.399,32.390,4.357,4.357,235.219,202.181,189.040
0.401,32.589,4.402,4.402,235.178,202.183,188.845
0.402,32.807,4.455,4.455,235.130,202.184,188.633
0.404,33.035,4.516,4.516,235.080,202.182,188.410
0.405,33.268,4.585,4.585,235.027,202.176,188.183
0.407,33.497,4.659,4.659,234.975,202.166,187.960
0.408,33.717,4.736,4.736,234.925,202.151,187.747
0.410,33.919,4.811,4.811,234.879,202.130,187.552
0.411,34.097,4.881,4.881,234.839,202.101,187.381
0.413,34.245,4.944,4.944,234.806,202.064,187.241
0.414,34.359,4.997,4.997,234.783,202.018,187.139
0.415,34.447,5.036,5.036,234.769,201.965,187.070
0.417,34.517,5.063,5.063,234.762,201.909,187.030
0.418,34.577,5.079,5.079,234.762,201.851,187.012
0.420,34.634,5.086,5.086,234.767,201.795,187.010
0.421,34.687,5.085,5.085,234.776,201.743,187.020
0.423,34.736,5.079,5.079,234.788,201.698,187.034
0.424,34.775,5.069,5.069,234.801,201.664,187.048
0.426,34.802,5.056,5.056,234.815,201.642,187.055
0.427,34.818,5.043,5.043,234.829,201.636,187.049
0.429,34.847,5.032,5.032,234.841,201.649,187.025
0.430,34.904,5.025,5.025,234.849,201.681,186.979
0.431,34.988,5.026,5.026,234.855,201.733,186.913
0.433,35.094,5.034,5.034,234.857,201.800,186.831
0.434,35.217,5.054,5.054,234.855,201.880,186.738
0.436,35.352,5.086,5.086,234.849,201.970,186.637
0.437,35.495,5.127,5.127,234.838,202.067,186.534
0.439,35.640,5.171,5.171,234.822,202.169,186.431
0.440,35.784,5.215,5.215,234.801,202.273,186.335
0.442,35.921,5.254,5.254,234.775,202.376,186.248
0.443,36.048,5.283,5.283,234.743,202.475,186.175
0.445,36.162,5.298,5.298,234.705,202.568,186.120
0.446,36.263,5.297,5.297,234.661,202.651,186.085
0.448,36.351,5.281,5.281,234.616,202.725,186.067
0.449,36.427,5.257,5.257,234.572,202.787,186.061
0.450,36.490,5.228,5.228,234.533,202.837,186.062
0.452,36.537,5.199,5.199,234.504,202.873,186.064
0.453,36.564,5.174,5.174,234.488,202.895,186.064
0.455,36.574,5.157,5.157,234.490,202.901,186.056
0.456,36.605,5.151,5.151,234.511,202.890,186.036
0.458,36.672,5.152,5.152,234.558,202.862,185.998
0.459,36.779,5.157,5.157,234.633,202.815,185.938
0.461,36.932,5.161,5.161,234.740,202.748,185.851
0.462,37.134,5.161,5.161,234.880,202.661,185.735
0.464,37.375,5.152,5.152,235.049,202.560,185.594
0.465,37.647,5.131,5.131,235.238,202.449,185.434
0.466,37.940,5.097,5.097,235.444,202.333,185.260
0.468,38.246,5.052,5.052,235.659,202.217,185.077
0.469,38.554,5.000,5.000,235.877,202.106,184.889
0.471,38.857,4.945,4.945,236.093,202.005,184.703
0.472,39.145,4.890,4.890,236.300,201.918,184.523
0.474,39.409,4.838,4.838,236.493,201.851,184.354
0.475,39.642,4.794,4.794,236.664,201.809,184.202
0.477,39.838,4.760,4.760,236.809,201.795,184.071
0.478,39.996,4.733,4.733,236.924,201.813,183.964
0.480,40.128,4.713,4.713,237.013,201.859,183.879
0.481,40.244,4.699,4.699,237.080,201.929,183.813
0.483,40.358,4.688,4.688,237.129,202.019,183.765
0.484,40.476,4.680,4.680,237.162,202.127,183.731
0.485,40.602,4.673,4.673,237.184,202.249,183.709
0.487,40.735,4.666,4.666,237.199,202.381,183.697
0.488,40.874,4.659,4.659,237.210,202.519,183.693
0.490,41.016,4.651,4.651,237.221,202.660,183.694
0.491,41.157,4.643,4.643,237.236,202.801,183.697
0.493,41.296,4.635,4.635,237.258,202.938,183.701
0.494,41.431,4.625,4.625,237.290,203.069,183.703
0.496,41.562,4.613,4.613,237.331,203.194,183.703
0.497,41.692,4.600,4.600,237.381,203.314,183.698
0.499,41.821,4.586,4.586,237.440,203.428,183.689
0.500,41.951,4.570,4.570,237.508,203.537,183.672
0.501,42.082,4.553,4.553,237.585,203.641,183.648
0.503,42.218,4.535,4.535,237.670,203.741,183.615
0.504,42.358,4.517,4.517,237.764,203.836,183.571
0.506,42.505,4.497,4.497,237.866,203.927,183.516
0.507,42.661,4.478,4.478,237.976,204.013,183.448
0.509,42.827,4.459,4.459,238.095,204.096,183.365
0.510,43.003,4.441,4.441,238.220,204.175,183.270
0.512,43.186,4.425,4.425,238.349,204.249,183.165
0.513,43.374,4.411,4.411,238.482,204.319,183.052
0.515,43.562,4.401,4.401,238.614,204.384,182.935
0.516,43.749,4.394,4.394,238.746,204.444,182.816
0.517,43.930,4.391,4.391,238.873,204.498,182.699
0.519,44.104,4.390,4.390,238.994,204.546,182.585
0.520,44.265,4.390,4.390,239.107,204.588,182.478
0.522,44.411,4.390,4.390,239.210,204.623,182.381
0.523,44.538,4.388,4.388,239.301,204.651,182.296
0.525,44.643,4.384,4.384,239.377,204.672,182.226
0.526,44.727,4.375,4.375,239.439,204.687,182.172
0.528,44.792,4.364,4.364,239.488,204.699,182.131
0.529,44.841,4.353,4.353,239.526,204.710,182.101
0.531,44.877,4.342,4.342,239.552,204.723,182.080
0.532,44.904,4.336,4.336,239.570,204.739,182.068
0.534,44.930,4.335,4.335,239.579,204.761,182.060
0.535,44.961,4.342,4.342,239.581,204.793,182.057
0.536,45.004,4.359,4.359,239.578,204.835,182.056
0.538,45.061,4.385,4.385,239.571,204.891,182.054
0.539,45.133,4.417,4.417,239.561,204.963,182.051
0.541,45.224,4.452,4.452,239.549,205.053,182.045
0.542,45.331,4.488,4.488,239.536,205.159,182.035
0.544,45.451,4.521,4.521,239.524,205.277,182.022
0.545,45.578,4.550,4.550,239.513,205.404,182.008
0.547,45.710,4.571,4.571,239.505,205.534,181.993
0.548,45.843,4.585,4.585,239.501,205.666,181.977
0.550,45.973,4.592,4.592,239.501,205.795,181.963
0.551,46.095,4.593,4.593,239.507,205.917,181.950
0.552,46.208,4.588,4.588,239.520,206.028,181.940
0.554,46.307,4.577,4.578,239.541,206.125,181.933
0.555,46.391,4.563,4.563,239.570,206.203,181.931
0.557,46.461,4.544,4.544,239.610,206.261,181.933
0.558,46.524,4.522,4.522,239.660,206.299,181.938
0.560,46.587,4.498,4.497,239.719,206.322,181.943
0.561,46.657,4.471,4.471,239.787,206.333,181.947
0.563,46.734,4.444,4.443,239.864,206.336,181.947
0.564,46.819,4.415,4.415,239.949,206.334,181.941
0.566,46.914,4.387,4.387,240.043,206.332,181.926
0.567,47.018,4.359,4.359,240.144,206.332,181.899
0.569,47.134,4.330,4.331,240.252,206.339,181.860
0.570,47.262,4.301,4.302,240.367,206.357,181.804
0.571,47.408,4.269,4.271,240.488,206.388,181.730
0.573,47.573,4.235,4.237,240.615,206.437,181.636
0.574,47.757,4.197,4.199,240.747,206.500,181.525
0.576,47.957,4.155,4.155,240.882,206.577,181.399
0.577,48.169,4.108,4.106,241.018,206.665,181.263
0.579,48.390,4.058,4.054,241.155,206.761,181.118
0.580,48.615,4.008,4.002,241.290,206.863,180.969
0.582,48.842,3.958,3.951,241.422,206.969,180.818
0.583,49.065,3.913,3.906,241.549,207.077,180.669
0.585,49.282,3.873,3.868,241.670,207.183,180.525
0.586,49.488,3.841,3.842,241.784,207.287,180.389
0.587,49.678,3.818,3.827,241.889,207.386,180.264
0.589,49.850,3.804,3.822,241.983,207.477,180.152
0.590,50.004,3.797,3.826,242.067,207.560,180.054
0.592,50.139,3.796,3.835,242.141,207.634,179.969
0.593,50.256,3.799,3.847,242.206,207.697,179.895
