"T","Distance","Radius","FreeRadius","X","Y","Z"
0.000,0.000,1.775,1.775,242.185,205.725,208.694
0.001,0.020,1.782,1.782,242.187,205.706,208.688
0.003,0.040,1.789,1.789,242.189,205.688,208.681
0.004,0.059,1.796,1.796,242.192,205.670,208.674
0.006,0.078,1.803,1.803,242.196,205.653,208.666
0.007,0.097,1.809,1.809,242.200,205.637,208.657
0.009,0.116,1.814,1.814,242.205,205.623,208.647
0.010,0.134,1.818,1.818,242.212,205.610,208.635
0.011,0.153,1.821,1.821,242.220,205.599,208.622
0.013,0.173,1.823,1.823,242.230,205.590,208.608
0.014,0.194,1.825,1.825,242.242,205.583,208.591
0.016,0.218,1.826,1.826,242.256,205.580,208.572
0.017,0.245,1.827,1.827,242.272,205.579,208.551
0.018,0.274,1.827,1.827,242.290,205.581,208.527
0.020,0.306,1.828,1.828,242.310,205.584,208.503
0.021,0.338,1.829,1.829,242.329,205.588,208.478
0.023,0.369,1.831,1.831,242.349,205.592,208.454
0.024,0.400,1.832,1.832,242.368,205.596,208.430
0.026,0.429,1.834,1.834,242.385,205.599,208.407
0.027,0.454,1.835,1.835,242.401,205.601,208.387
0.028,0.475,1.837,1.837,242.413,205.599,208.370
0.030,0.493,1.837,1.837,242.422,205.595,208.356
0.031,0.507,1.837,1.837,242.428,205.587,208.346
0.033,0.520,1.837,1.837,242.428,205.575,208.340
0.034,0.535,1.835,1.835,242.427,205.560,208.338
0.035,0.550,1.833,1.833,242.423,205.545,208.337
0.037,0.563,1.830,1.830,242.421,205.532,208.335
0.038,0.573,1.825,1.825,242.421,205.524,208.331
0.040,0.582,1.819,1.819,242.426,205.522,208.324
0.041,0.600,1.812,1.812,242.436,205.528,208.311
0.043,0.632,1.803,1.803,242.455,205.545,208.291
0.044,0.683,1.795,1.795,242.483,205.575,208.261
0.045,0.755,1.788,1.788,242.523,205.621,208.221
0.047,0.853,1.784,1.784,242.576,205.683,208.168
0.048,0.978,1.784,1.784,242.643,205.765,208.102
0.050,1.128,1.788,1.788,242.724,205.863,208.022
0.051,1.299,1.798,1.798,242.816,205.976,207.931
0.052,1.488,1.815,1.815,242.916,206.100,207.831
0.054,1.690,1.840,1.840,243.023,206.232,207.722
0.055,1.902,1.874,1.874,243.135,206.370,207.606
0.057,2.120,1.916,1.916,243.248,206.511,207.485
0.058,2.339,1.968,1.968,243.361,206.652,207.360
0.060,2.557,2.031,2.031,243.472,206.791,207.233
0.061,2.770,2.104,2.104,243.578,206.923,207.105
0.062,2.973,2.188,2.188,243.678,207.047,206.978
0.064,3.165,2.279,2.279,243.769,207.160,206.854
0.065,3.344,2.373,2.373,243.851,207.263,206.732
0.067,3.509,2.466,2.466,243.924,207.354,206.616
0.068,3.661,2.555,2.555,243.989,207.435,206.504
0.070,3.800,2.634,2.634,244.046,207.506,206.399
0.071,3.925,2.701,2.701,244.094,207.568,206.302
0.072,4.035,2.753,2.753,244.134,207.620,206.214
0.074,4.131,2.792,2.792,244.167,207.664,206.135
0.075,4.212,2.820,2.820,244.192,207.699,206.067
0.077,4.277,2.840,2.840,244.209,207.727,206.010
0.078,4.326,2.853,2.853,244.220,207.746,205.967
0.079,4.358,2.861,2.861,244.223,207.759,205.937
0.081,4.378,2.868,2.868,244.221,207.766,205.919
0.082,4.388,2.875,2.875,244.216,207.767,205.910
0.084,4.394,2.881,2.881,244.210,207.766,205.909
0.085,4.403,2.887,2.887,244.204,207.762,205.913
0.087,4.412,2.891,2.891,244.201,207.757,205.920
0.088,4.421,2.893,2.893,244.202,207.752,205.928
0.089,4.431,2.892,2.892,244.209,207.749,205.933
0.091,4.446,2.889,2.889,244.225,207.749,205.935
0.092,4.473,2.882,2.882,244.251,207.752,205.931
0.094,4.515,2.874,2.874,244.290,207.761,205.918
0.095,4.574,2.866,2.866,244.342,207.777,205.895
0.096,4.649,2.861,2.861,244.406,207.800,205.863
0.098,4.739,2.861,2.861,244.481,207.830,205.824
0.099,4.840,2.867,2.867,244.563,207.869,205.780
0.101,4.950,2.882,2.882,244.652,207.916,205.734
0.102,5.068,2.908,2.908,244.744,207.973,205.687
0.104,5.191,2.944,2.944,244.837,208.039,205.643
0.105,5.318,2.986,2.986,244.931,208.116,205.602
0.106,5.448,3.033,3.033,245.021,208.203,205.567
0.108,5.581,3.082,3.082,245.106,208.301,205.541
0.109,5.717,3.130,3.130,245.184,208.411,205.525
0.111,5.857,3.174,3.174,245.253,208.533,205.521
0.112,6.002,3.213,3.213,245.314,208.665,205.528
0.113,6.151,3.246,3.246,245.366,208.803,205.545
0.115,6.301,3.273,3.273,245.410,208.944,205.569
0.116,6.451,3.295,3.295,245.448,209.086,205.599
0.118,6.597,3.312,3.312,245.479,209.225,205.633
0.119,6.738,3.325,3.325,245.506,209.359,205.668
0.121,6.870,3.335,3.335,245.527,209.484,205.703
0.122,6.989,3.341,3.341,245.544,209.598,205.737
0.123,7.093,3.345,3.345,245.558,209.696,205.767
0.125,7.178,3.348,3.348,245.569,209.777,205.792
0.126,7.242,3.349,3.349,245.578,209.838,205.809
0.128,7.286,3.350,3.350,245.584,209.880,205.820
0.129,7.314,3.351,3.351,245.589,209.907,205.827
0.130,7.330,3.353,3.353,245.591,209.921,205.830
0.132,7.336,3.356,3.356,245.590,209.927,205.832
0.133,7.340,3.362,3.362,245.587,209.927,205.834
0.135,7.348,3.368,3.368,245.580,209.923,205.837
0.136,7.360,3.374,3.374,245.570,209.921,205.844
0.138,7.377,3.380,3.380,245.556,209.921,205.854
0.139,7.402,3.386,3.386,245.539,209.928,205.871
0.140,7.439,3.389,3.389,245.518,209.945,205.896
0.142,7.490,3.391,3.391,245.493,209.975,205.929
0.143,7.555,3.391,3.391,245.464,210.015,205.971
0.145,7.630,3.388,3.388,245.433,210.064,206.019
0.146,7.714,3.382,3.382,245.401,210.120,206.072
0.148,7.803,3.375,3.375,245.367,210.181,206.128
0.149,7.894,3.366,3.366,245.334,210.243,206.186
0.150,7.984,3.356,3.356,245.302,210.304,206.243
0.152,8.071,3.344,3.344,245.272,210.363,206.300
0.153,8.151,3.330,3.330,245.244,210.416,206.353
0.155,8.221,3.317,3.317,245.220,210.462,206.401
0.156,8.280,3.303,3.303,245.201,210.498,206.443
0.157,8.324,3.291,3.291,245.187,210.522,206.477
0.159,8.356,3.281,3.281,245.178,210.535,206.505
0.160,8.379,3.274,3.274,245.173,210.541,206.527
0.162,8.398,3.270,3.270,245.173,210.542,206.545
0.163,8.414,3.271,3.271,245.176,210.540,206.561
0.165,8.431,3.273,3.273,245.183,210.538,206.576
0.166,8.449,3.276,3.276,245.192,210.539,206.592
0.167,8.471,3.276,3.276,245.203,210.545,206.610
0.169,8.500,3.272,3.272,245.215,210.559,206.632
0.170,8.540,3.262,3.262,245.229,210.584,206.660
0.172,8.593,3.244,3.244,245.243,210.622,206.694
0.173,8.663,3.215,3.215,245.258,210.676,206.736
0.174,8.749,3.179,3.179,245.273,210.744,206.786
0.176,8.848,3.136,3.136,245.287,210.825,206.844
0.177,8.960,3.089,3.089,245.302,210.915,206.907
0.179,9.080,3.040,3.040,245.318,211.012,206.977
0.180,9.208,2.992,2.992,245.334,211.114,207.051
0.182,9.340,2.946,2.946,245.352,211.220,207.129
0.183,9.474,2.905,2.905,245.369,211.325,207.210
0.184,9.609,2.870,2.870,245.388,211.429,207.294
0.186,9.741,2.838,2.838,245.409,211.528,207.379
0.187,9.870,2.811,2.811,245.430,211.621,207.465
0.189,9.992,2.788,2.788,245.453,211.705,207.550
0.190,10.108,2.768,2.768,245.477,211.780,207.636
0.191,10.218,2.750,2.750,245.504,211.845,207.720
0.193,10.322,2.735,2.735,245.533,211.902,207.803
0.194,10.422,2.721,2.721,245.564,211.949,207.884
0.196,10.516,2.708,2.708,245.599,211.988,207.964
0.197,10.607,2.695,2.695,245.636,212.018,208.041
0.199,10.695,2.681,2.681,245.678,212.039,208.115
0.200,10.780,2.664,2.664,245.723,212.051,208.187
0.201,10.864,2.645,2.645,245.772,212.055,208.254
0.203,10.948,2.623,2.623,245.826,212.051,208.318
0.204,11.032,2.598,2.598,245.884,212.039,208.378
0.206,11.119,2.571,2.571,245.946,212.020,208.435
0.207,11.207,2.546,2.546,246.010,211.995,208.491
0.209,11.297,2.524,2.524,246.075,211.968,208.548
0.210,11.388,2.506,2.506,246.138,211.938,208.607
0.211,11.480,2.496,2.496,246.197,211.909,208.670
0.213,11.572,2.494,2.494,246.252,211.881,208.738
0.214,11.666,2.500,2.500,246.301,211.857,208.815
0.216,11.763,2.512,2.512,246.342,211.837,208.900
0.217,11.865,2.528,2.528,246.373,211.825,208.997
0.218,11.977,2.545,2.545,246.393,211.821,209.107
0.220,12.101,2.559,2.559,246.400,211.826,209.230
0.221,12.238,2.570,2.570,246.396,211.842,209.367
0.223,12.387,2.573,2.573,246.384,211.866,209.513
0.224,12.545,2.567,2.567,246.365,211.897,209.667
0.226,12.710,2.554,2.554,246.343,211.935,209.826
0.227,12.877,2.533,2.533,246.321,211.979,209.986
0.228,13.045,2.505,2.505,246.300,212.026,210.145
0.230,13.210,2.471,2.471,246.283,212.077,210.301
0.231,13.368,2.430,2.430,246.274,212.130,210.451
0.233,13.519,2.385,2.385,246.274,212.184,210.591
0.234,13.659,2.335,2.335,246.287,212.237,210.720
0.235,13.787,2.283,2.283,246.314,212.290,210.834
0.237,13.907,2.231,2.231,246.355,212.342,210.934
0.238,14.021,2.181,2.181,246.409,212.392,211.021
0.240,14.131,2.135,2.135,246.472,212.441,211.096
0.241,14.238,2.097,2.097,246.543,212.489,211.160
0.243,14.344,2.067,2.067,246.619,212.537,211.215
0.244,14.448,2.048,2.048,246.700,212.584,211.262
0.245,14.551,2.037,2.037,246.783,212.631,211.302
0.247,14.651,2.032,2.032,246.865,212.678,211.336
0.248,14.748,2.030,2.030,246.944,212.724,211.365
0.250,14.841,2.030,2.030,247.020,212.770,211.391
0.251,14.927,2.028,2.028,247.089,212.817,211.415
0.252,15.008,2.022,2.022,247.152,212.862,211.439
0.254,15.084,2.012,2.012,247.208,212.905,211.466
0.255,15.154,1.996,1.996,247.258,212.943,211.497
0.257,15.221,1.978,1.978,247.302,212.975,211.537
0.258,15.289,1.959,1.959,247.341,212.998,211.586
0.260,15.361,1.942,1.942,247.374,213.012,211.649
0.261,15.443,1.927,1.927,247.403,213.015,211.727
0.262,15.542,1.917,1.917,247.426,213.004,211.822
0.264,15.663,1.913,1.913,247.445,212.978,211.938
0.265,15.809,1.916,1.916,247.460,212.935,212.077
0.267,15.984,1.926,1.926,247.471,212.875,212.241
0.268,16.185,1.943,1.943,247.479,212.797,212.427
0.270,16.407,1.968,1.968,247.482,212.707,212.629
0.271,16.642,2.000,2.000,247.482,212.606,212.842
0.272,16.885,2.039,2.039,247.479,212.499,213.059
0.274,17.128,2.085,2.085,247.473,212.388,213.276
0.275,17.366,2.137,2.137,247.464,212.277,213.486
0.277,17.592,2.192,2.192,247.452,212.169,213.684
0.278,17.800,2.246,2.246,247.438,212.068,213.865
0.279,17.982,2.298,2.298,247.420,211.976,214.021
0.281,18.133,2.343,2.343,247.401,211.897,214.149
0.282,18.248,2.379,2.379,247.379,211.833,214.242
0.284,18.328,2.404,2.404,247.357,211.786,214.302
0.285,18.379,2.418,2.418,247.335,211.753,214.335
0.287,18.409,2.421,2.421,247.316,211.733,214.345
0.288,18.428,2.417,2.417,247.300,211.724,214.339
0.289,18.448,2.407,2.407,247.290,211.725,214.321
0.291,18.474,2.393,2.393,247.288,211.735,214.298
0.292,18.504,2.377,2.377,247.294,211.751,214.273
0.294,18.538,2.360,2.360,247.311,211.773,214.253
0.295,18.579,2.345,2.345,247.340,211.799,214.242
0.296,18.630,2.332,2.332,247.383,211.826,214.247
0.298,18.700,2.321,2.321,247.441,211.855,214.272
0.299,18.789,2.313,2.313,247.513,211.884,214.317
0.301,18.897,2.308,2.308,247.595,211.913,214.381
0.302,19.021,2.307,2.307,247.685,211.942,214.461
0.304,19.157,2.310,2.310,247.778,211.970,214.556
0.305,19.303,2.318,2.318,247.872,211.997,214.664
0.306,19.454,2.328,2.328,247.964,212.023,214.782
0.308,19.609,2.339,2.339,248.049,212.048,214.908
0.309,19.764,2.349,2.349,248.125,212.071,215.041
0.311,19.917,2.358,2.358,248.189,212.092,215.179
0.312,20.066,2.362,2.362,248.237,212.111,215.319
0.313,20.210,2.361,2.361,248.266,212.128,215.459
0.315,20.352,2.354,2.354,248.277,212.144,215.599
0.316,20.494,2.340,2.340,248.271,212.162,215.740
0.318,20.637,2.320,2.320,248.250,212.185,215.880
0.319,20.784,2.295,2.295,248.216,212.215,216.020
0.321,20.936,2.263,2.263,248.172,212.254,216.160
0.322,21.095,2.227,2.227,248.119,212.305,216.300
0.323,21.261,2.186,2.186,248.060,212.372,216.440
0.325,21.436,2.141,2.141,247.995,212.455,216.581
0.326,21.623,2.095,2.095,247.928,212.559,216.721
0.328,21.824,2.053,2.053,247.860,212.685,216.862
0.329,22.041,2.019,2.019,247.794,212.835,217.003
0.330,22.273,1.995,1.995,247.730,213.008,217.144
0.332,22.517,1.987,1.987,247.672,213.199,217.286
0.333,22.770,1.998,1.998,247.621,213.401,217.429
0.335,23.027,2.030,2.030,247.579,213.609,217.572
0.336,23.283,2.077,2.077,247.549,213.820,217.716
0.338,23.536,2.133,2.133,247.531,214.026,217.862
0.339,23.782,2.188,2.188,247.528,214.223,218.008
0.340,24.018,2.237,2.237,247.542,214.406,218.157
0.342,24.242,2.271,2.271,247.575,214.569,218.307
0.343,24.454,2.283,2.283,247.628,214.707,218.458
0.345,24.656,2.268,2.268,247.704,214.815,218.612
0.346,24.855,2.230,2.230,247.801,214.893,218.766
0.348,25.054,2.181,2.181,247.916,214.944,218.921
0.349,25.256,2.129,2.129,248.046,214.968,219.074
0.350,25.461,2.085,2.085,248.186,214.969,219.224
0.352,25.670,2.058,2.058,248.334,214.949,219.369
0.353,25.881,2.059,2.059,248.487,214.911,219.510
0.355,26.091,2.095,2.095,248.640,214.856,219.643
0.356,26.299,2.163,2.163,248.790,214.787,219.769
0.357,26.501,2.256,2.256,248.935,214.707,219.885
0.359,26.694,2.363,2.363,249.071,214.618,219.990
0.360,26.876,2.476,2.476,249.194,214.522,220.083
0.362,27.046,2.585,2.585,249.305,214.421,220.163
0.363,27.208,2.683,2.683,249.406,214.315,220.230
0.365,27.363,2.760,2.760,249.502,214.205,220.284
0.366,27.514,2.814,2.814,249.593,214.092,220.325
0.367,27.663,2.848,2.848,249.684,213.977,220.351
0.369,27.812,2.865,2.865,249.777,213.861,220.363
0.370,27.964,2.867,2.867,249.875,213.745,220.361
0.372,28.121,2.856,2.856,249.980,213.629,220.343
0.373,28.287,2.836,2.836,250.096,213.515,220.311
0.374,28.465,2.808,2.808,250.226,213.402,220.264
0.376,28.657,2.776,2.776,250.371,213.293,220.201
0.377,28.864,2.740,2.740,250.531,213.188,220.124
0.379,29.082,2.705,2.705,250.704,213.087,220.037
0.380,29.307,2.671,2.671,250.886,212.993,219.943
0.382,29.536,2.642,2.642,251.075,212.906,219.846
0.383,29.765,2.618,2.618,251.266,212.827,219.750
0.384,29.989,2.604,2.604,251.458,212.758,219.656
0.386,30.205,2.598,2.598,251.647,212.698,219.570
0.387,30.409,2.599,2.599,251.830,212.651,219.494
0.389,30.597,2.606,2.606,252.004,212.615,219.432
0.390,30.767,2.617,2.617,252.166,212.594,219.387
0.391,30.917,2.631,2.631,252.314,212.587,219.363
0.393,31.049,2.645,2.645,252.446,212.593,219.359
0.394,31.170,2.658,2.658,252.564,212.612,219.373
0.396,31.282,2.668,2.668,252.669,212.641,219.401
0.397,31.391,2.676,2.676,252.763,212.677,219.442
0.399,31.496,2.681,2.681,252.845,212.720,219.492
0.400,31.601,2.683,2.683,252.919,212.767,219.549
0.401,31.702,2.682,2.682,252.984,212.817,219.610
0.403,31.801,2.677,2.677,253.042,212.867,219.672
0.404,31.894,2.669,2.669,253.094,212.915,219.733
0.406,31.981,2.658,2.658,253.142,212.960,219.789
0.407,32.058,2.645,2.645,253.186,212.999,219.838
0.409,32.126,2.630,2.630,253.227,213.033,219.881
0.410,32.187,2.616,2.616,253.264,213.064,219.919
0.411,32.244,2.603,2.603,253.297,213.094,219.954
0.413,32.297,2.592,2.592,253.325,213.123,219.988
0.414,32.349,2.586,2.586,253.348,213.154,220.023
0.416,32.404,2.584,2.584,253.365,213.190,220.062
0.417,32.465,2.586,2.586,253.376,213.230,220.105
0.418,32.535,2.592,2.592,253.380,213.278,220.157
0.420,32.618,2.602,2.602,253.376,213.334,220.217
0.421,32.717,2.614,2.614,253.365,213.402,220.289
0.423,32.835,2.628,2.628,253.346,213.481,220.374
0.424,32.971,2.643,2.643,253.319,213.572,220.472
0.426,33.121,2.659,2.659,253.286,213.672,220.579
0.427,33.280,2.676,2.676,253.248,213.777,220.692
0.428,33.444,2.691,2.691,253.208,213.884,220.809
0.430,33.607,2.705,2.705,253.165,213.990,220.926
0.431,33.767,2.717,2.717,253.123,214.093,221.040
0.433,33.918,2.725,2.725,253.083,214.189,221.149
0.434,34.055,2.729,2.729,253.046,214.276,221.249
0.435,34.174,2.729,2.729,253.013,214.349,221.337
0.437,34.271,2.724,2.724,252.986,214.407,221.411
0.438,34.341,2.717,2.717,252.968,214.446,221.466
0.440,34.386,2.709,2.709,252.957,214.467,221.504
0.441,34.411,2.702,2.702,252.953,214.475,221.527
0.443,34.422,2.697,2.697,252.956,214.474,221.537
0.444,34.432,2.694,2.694,252.965,214.469,221.538
0.445,34.447,2.697,2.697,252.978,214.464,221.532
0.447,34.467,2.704,2.704,252.995,214.463,221.522
0.448,34.492,2.713,2.713,253.015,214.471,221.509
0.450,34.525,2.724,2.724,253.038,214.492,221.498
0.451,34.572,2.734,2.734,253.062,214.531,221.490
0.452,34.638,2.742,2.742,253.088,214.592,221.489
0.454,34.729,2.747,2.747,253.113,214.679,221.497
0.455,34.847,2.747,2.747,253.138,214.793,221.514
0.457,34.986,2.741,2.741,253.163,214.927,221.538
0.458,35.143,2.733,2.733,253.188,215.079,221.569
0.460,35.312,2.722,2.722,253.214,215.242,221.604
0.461,35.489,2.711,2.711,253.241,215.413,221.641
0.462,35.669,2.701,2.701,253.268,215.587,221.680
0.464,35.847,2.694,2.693,253.297,215.759,221.718
0.465,36.019,2.690,2.690,253.327,215.925,221.753
0.467,36.180,2.692,2.692,253.359,216.079,221.785
0.468,36.325,2.697,2.697,253.393,216.217,221.810
0.470,36.450,2.705,2.705,253.428,216.336,221.829
0.471,36.554,2.715,2.715,253.466,216.432,221.840
0.472,36.640,2.726,2.726,253.504,216.510,221.844
0.474,36.711,2.737,2.737,253.542,216.569,221.843
0.475,36.769,2.747,2.747,253.580,216.613,221.836
0.477,36.816,2.756,2.756,253.615,216.642,221.826
0.478,36.856,2.764,2.764,253.648,216.660,221.812
0.479,36.890,2.771,2.771,253.678,216.667,221.797
0.481,36.920,2.778,2.778,253.702,216.667,221.780
0.482,36.947,2.786,2.786,253.722,216.660,221.763
0.484,36.971,2.794,2.794,253.735,216.648,221.746
0.485,36.992,2.803,2.803,253.741,216.635,221.731
0.487,37.011,2.814,2.814,253.742,216.620,221.719
0.488,37.027,2.823,2.824,253.740,216.608,221.709
0.489,37.038,2.830,2.830,253.738,216.600,221.702
0.491,37.042,2.831,2.831,253.741,216.597,221.700
0.492,37.054,2.824,2.824,253.751,216.602,221.703
0.494,37.081,2.808,2.808,253.772,216.618,221.711
0.495,37.128,2.779,2.779,253.806,216.646,221.726
0.496,37.198,2.738,2.738,253.858,216.688,221.747
0.498,37.296,2.689,2.688,253.931,216.747,221.776
0.499,37.425,2.637,2.636,254.027,216.825,221.812
0.501,37.589,2.587,2.586,254.151,216.923,221.858
0.502,37.788,2.546,2.545,254.300,217.042,221.911
0.504,38.014,2.519,2.519,254.470,217.178,221.973
0.505,38.262,2.512,2.511,254.655,217.328,222.041
0.506,38.525,2.527,2.528,254.849,217.490,222.116
0.508,38.798,2.563,2.565,255.046,217.661,222.195
0.509,39.074,2.612,2.615,255.242,217.837,222.279
0.511,39.347,2.670,2.674,255.429,218.015,222.366
0.512,39.612,2.731,2.735,255.603,218.194,222.456
0.513,39.863,2.789,2.792,255.759,218.369,222.547
0.515,40.095,2.839,2.839,255.890,218.537,222.639
0.516,40.305,2.875,2.872,255.990,218.697,222.730
0.518,40.493,2.898,2.891,256.060,218.846,222.821
0.519,40.662,2.912,2.900,256.102,218.984,222.909
0.521,40.816,2.918,2.904,256.120,219.111,222.995
0.522,40.958,2.920,2.905,256.117,219.227,223.076
0.523,41.089,2.921,2.909,256.097,219.333,223.152
0.525,41.211,2.923,2.920,256.064,219.427,223.221
0.526,41.324,2.930,2.939,256.022,219.511,223.284
0.528,41.427,2.941,2.968,255.973,219.584,223.338
0.529,41.519,2.956,3.004,255.922,219.646,223.382
0.530,41.598,2.973,3.042,255.872,219.697,223.416
0.532,41.663,2.992,3.082,255.827,219.737,223.439
0.533,41.712,3.011,3.118,255.790,219.768,223.451
0.535,41.749,3.030,3.150,255.762,219.791,223.452
0.536,41.776,3.047,3.173,255.744,219.810,223.444
0.538,41.800,3.061,3.186,255.740,219.828,223.428
0.539,41.831,3.072,3.191,255.750,219.846,223.405
0.540,41.876,3.078,3.187,255.777,219.868,223.376
0.542,41.939,3.078,3.174,255.821,219.896,223.342
0.543,42.022,3.072,3.153,255.886,219.933,223.305
0.545,42.129,3.059,3.125,255.972,219.982,223.265
0.546,42.261,3.037,3.089,256.081,220.045,223.224
0.548,42.423,3.007,3.047,256.215,220.125,223.182
0.549,42.614,2.972,3.002,256.373,220.223,223.141
0.550,42.829,2.936,2.957,256.551,220.338,223.101
0.552,43.064,2.901,2.914,256.743,220.469,223.061
0.553,43.317,2.871,2.877,256.945,220.614,223.023
0.555,43.582,2.847,2.849,257.153,220.774,222.985
0.556,43.855,2.833,2.832,257.362,220.946,222.950
0.557,44.133,2.831,2.828,257.567,221.131,222.916
0.559,44.412,2.841,2.837,257.764,221.326,222.883
0.560,44.689,2.861,2.857,257.949,221.531,222.853
0.562,44.962,2.891,2.888,258.115,221.745,222.825
0.563,45.228,2.932,2.930,258.260,221.967,222.800
0.565,45.487,2.982,2.981,258.381,222.194,222.777
0.566,45.737,3.040,3.040,258.480,222.423,222.755
0.567,45.977,3.106,3.107,258.559,222.648,222.736
0.569,46.205,3.176,3.178,258.619,222.867,222.717
0.570,46.418,3.248,3.250,258.663,223.075,222.699
0.572,46.614,3.316,3.319,258.691,223.268,222.680
0.573,46.789,3.379,3.381,258.707,223.442,222.662
0.574,46.941,3.433,3.434,258.710,223.593,222.642
0.576,47.066,3.474,3.474,258.704,223.716,222.622
0.577,47.161,3.500,3.498,258.691,223.807,222.599
0.579,47.226,3.514,3.510,258.671,223.863,222.574
