"T","Distance","Radius","FreeRadius","X","Y","Z"
0.000,0.000,1.775,1.775,242.185,205.725,208.694
0.001,0.030,1.786,1.786,242.193,205.707,208.672
0.003,0.059,1.797,1.797,242.201,205.690,208.650
0.004,0.087,1.807,1.807,242.209,205.673,208.629
0.005,0.113,1.817,1.817,242.216,205.656,208.610
0.007,0.137,1.824,1.824,242.224,205.641,208.594
0.008,0.158,1.830,1.830,242.231,205.626,208.581
0.009,0.176,1.834,1.834,242.238,205.612,208.571
0.010,0.191,1.836,1.836,242.244,205.600,208.566
0.012,0.203,1.835,1.835,242.250,205.590,208.565
0.013,0.215,1.831,1.831,242.256,205.581,208.571
0.014,0.229,1.823,1.823,242.260,205.574,208.582
0.016,0.249,1.813,1.813,242.263,205.568,208.601
0.017,0.278,1.799,1.799,242.262,205.564,208.630
0.018,0.318,1.781,1.781,242.257,205.560,208.669
0.020,0.372,1.760,1.760,242.244,205.556,208.721
0.021,0.441,1.735,1.735,242.223,205.553,208.787
0.022,0.529,1.706,1.706,242.193,205.548,208.869
0.023,0.636,1.677,1.677,242.151,205.542,208.968
0.025,0.767,1.648,1.648,242.096,205.534,209.086
0.026,0.922,1.621,1.621,242.026,205.525,209.225
0.027,1.104,1.599,1.599,241.941,205.512,209.385
0.029,1.310,1.583,1.583,241.841,205.498,209.565
0.030,1.534,1.575,1.575,241.729,205.481,209.758
0.031,1.772,1.576,1.576,241.605,205.463,209.960
0.033,2.019,1.588,1.588,241.473,205.445,210.168
0.034,2.269,1.608,1.608,241.334,205.426,210.375
0.035,2.518,1.637,1.637,241.190,205.407,210.578
0.036,2.761,1.673,1.673,241.043,205.389,210.771
0.038,2.994,1.716,1.716,240.896,205.372,210.950
0.039,3.211,1.764,1.764,240.750,205.357,211.110
0.040,3.409,1.817,1.817,240.607,205.344,211.247
0.042,3.590,1.875,1.875,240.470,205.334,211.363
0.043,3.754,1.935,1.935,240.338,205.325,211.461
0.044,3.905,1.995,1.995,240.214,205.318,211.547
0.046,4.044,2.055,2.055,240.099,205.313,211.626
0.047,4.173,2.112,2.112,239.995,205.309,211.701
0.048,4.294,2.164,2.164,239.902,205.307,211.778
0.049,4.409,2.211,2.211,239.822,205.305,211.861
0.051,4.524,2.250,2.250,239.756,205.304,211.955
0.052,4.645,2.280,2.280,239.706,205.304,212.066
0.053,4.780,2.305,2.305,239.673,205.304,212.196
0.055,4.930,2.325,2.325,239.655,205.305,212.345
0.056,5.093,2.343,2.343,239.647,205.308,212.508
0.057,5.263,2.362,2.362,239.645,205.314,212.678
0.059,5.436,2.385,2.385,239.645,205.323,212.850
0.060,5.605,2.412,2.412,239.641,205.338,213.019
0.061,5.765,2.447,2.447,239.629,205.359,213.177
0.063,5.914,2.490,2.490,239.604,205.386,213.321
0.064,6.048,2.539,2.539,239.563,205.422,213.444
0.065,6.171,2.593,2.593,239.500,205.466,213.540
0.066,6.293,2.649,2.649,239.411,205.521,213.603
0.068,6.428,2.705,2.705,239.296,205.585,213.634
0.069,6.581,2.760,2.760,239.161,205.656,213.637
0.070,6.750,2.812,2.812,239.011,205.731,213.616
0.072,6.931,2.859,2.859,238.852,205.809,213.577
0.073,7.119,2.901,2.901,238.690,205.888,213.525
0.074,7.306,2.937,2.937,238.530,205.964,213.464
0.076,7.486,2.968,2.968,238.377,206.035,213.399
0.077,7.652,2.994,2.994,238.239,206.099,213.336
0.078,7.795,3.015,3.015,238.119,206.154,213.280
0.079,7.909,3.032,3.032,238.024,206.198,213.234
0.081,7.991,3.045,3.045,237.955,206.229,213.202
0.082,8.043,3.054,3.054,237.911,206.248,213.182
0.083,8.071,3.059,3.059,237.888,206.258,213.172
0.085,8.076,3.062,3.062,237.882,206.260,213.171
0.086,8.089,3.063,3.063,237.892,206.255,213.177
0.087,8.115,3.064,3.064,237.913,206.245,213.189
0.089,8.151,3.064,3.064,237.943,206.231,213.203
0.090,8.194,3.065,3.065,237.979,206.215,213.220
0.091,8.239,3.067,3.067,238.017,206.198,213.237
0.092,8.283,3.072,3.072,238.055,206.181,213.253
0.094,8.324,3.077,3.077,238.090,206.166,213.266
0.095,8.358,3.083,3.083,238.120,206.153,213.276
0.096,8.385,3.090,3.090,238.145,206.143,213.283
0.098,8.404,3.095,3.095,238.162,206.136,213.288
0.099,8.413,3.099,3.099,238.170,206.133,213.289
0.100,8.416,3.100,3.100,238.167,206.134,213.287
0.102,8.432,3.099,3.099,238.153,206.140,213.281
0.103,8.463,3.095,3.095,238.126,206.151,213.272
0.104,8.510,3.089,3.089,238.084,206.168,213.260
0.105,8.574,3.082,3.082,238.027,206.190,213.244
0.107,8.656,3.075,3.075,237.952,206.219,213.224
0.108,8.753,3.069,3.069,237.865,206.253,213.202
0.109,8.860,3.065,3.065,237.767,206.291,213.178
0.111,8.975,3.064,3.064,237.662,206.332,213.152
0.112,9.094,3.068,3.068,237.554,206.374,213.126
0.113,9.213,3.075,3.075,237.446,206.416,213.100
0.115,9.328,3.085,3.085,237.341,206.458,213.076
0.116,9.436,3.096,3.096,237.243,206.497,213.053
0.117,9.534,3.109,3.109,237.155,206.532,213.033
0.118,9.616,3.121,3.121,237.080,206.563,213.017
0.120,9.682,3.133,3.133,237.021,206.589,213.004
0.121,9.732,3.142,3.142,236.977,206.609,212.995
0.122,9.768,3.148,3.148,236.945,206.625,212.990
0.124,9.792,3.151,3.151,236.924,206.636,212.986
0.125,9.806,3.152,3.152,236.912,206.645,212.985
0.126,9.813,3.151,3.151,236.907,206.650,212.985
0.128,9.817,3.149,3.149,236.908,206.653,212.985
0.129,9.821,3.146,3.146,236.913,206.655,212.986
0.130,9.828,3.143,3.143,236.919,206.655,212.986
0.132,9.834,3.140,3.140,236.925,206.656,212.986
0.133,9.839,3.137,3.137,236.930,206.656,212.984
0.134,9.843,3.136,3.136,236.932,206.657,212.980
0.135,9.848,3.135,3.135,236.931,206.659,212.976
0.137,9.855,3.135,3.135,236.927,206.662,212.972
0.138,9.865,3.135,3.135,236.918,206.666,212.968
0.139,9.881,3.136,3.136,236.905,206.673,212.965
0.141,9.901,3.137,3.137,236.886,206.682,212.963
0.142,9.929,3.139,3.139,236.862,206.694,212.964
0.143,9.963,3.142,3.142,236.831,206.709,212.966
0.145,10.005,3.145,3.145,236.793,206.728,212.972
0.146,10.056,3.147,3.147,236.748,206.750,212.980
0.147,10.115,3.150,3.150,236.696,206.775,212.992
0.148,10.181,3.152,3.152,236.638,206.803,213.005
0.150,10.253,3.153,3.153,236.575,206.833,213.020
0.151,10.329,3.153,3.153,236.507,206.864,213.035
0.152,10.407,3.152,3.152,236.436,206.895,213.049
0.154,10.488,3.150,3.150,236.362,206.926,213.063
0.155,10.570,3.147,3.147,236.287,206.955,213.074
0.156,10.652,3.143,3.143,236.211,206.983,213.083
0.158,10.732,3.139,3.139,236.134,207.007,213.088
0.159,10.811,3.134,3.134,236.059,207.029,213.089
0.160,10.888,3.129,3.129,235.984,207.047,213.085
0.161,10.965,3.124,3.124,235.908,207.062,213.078
0.163,11.044,3.119,3.119,235.831,207.075,213.068
0.164,11.124,3.115,3.115,235.753,207.086,213.055
0.165,11.208,3.112,3.112,235.671,207.096,213.039
0.167,11.295,3.110,3.110,235.586,207.104,213.022
0.168,11.387,3.111,3.111,235.497,207.112,213.003
0.169,11.484,3.114,3.114,235.402,207.120,212.984
0.171,11.586,3.119,3.119,235.302,207.128,212.964
0.172,11.696,3.128,3.128,235.194,207.137,212.944
0.173,11.811,3.141,3.141,235.081,207.148,212.925
0.174,11.930,3.155,3.155,234.964,207.163,212.906
0.176,12.052,3.170,3.170,234.846,207.181,212.888
0.177,12.175,3.183,3.183,234.727,207.206,212.871
0.178,12.297,3.193,3.193,234.610,207.238,212.856
0.180,12.417,3.200,3.200,234.497,207.279,212.842
0.181,12.536,3.200,3.200,234.390,207.329,212.831
0.182,12.654,3.192,3.192,234.291,207.391,212.821
0.184,12.770,3.177,3.177,234.202,207.466,212.813
0.185,12.888,3.155,3.155,234.124,207.555,212.809
0.186,13.010,3.129,3.129,234.059,207.658,212.807
0.188,13.139,3.099,3.099,234.006,207.775,212.808
0.189,13.277,3.067,3.067,233.964,207.906,212.813
0.190,13.425,3.035,3.035,233.932,208.051,212.821
0.191,13.584,3.005,3.005,233.911,208.208,212.833
0.193,13.755,2.978,2.978,233.898,208.377,212.849
0.194,13.938,2.954,2.954,233.895,208.559,212.870
0.195,14.133,2.934,2.934,233.900,208.753,212.896
0.197,14.340,2.918,2.918,233.912,208.958,212.926
0.198,14.560,2.905,2.905,233.931,209.173,212.962
0.199,14.790,2.897,2.897,233.957,209.398,213.003
0.201,15.026,2.893,2.893,233.986,209.629,213.045
0.202,15.266,2.893,2.893,234.017,209.862,213.088
0.203,15.504,2.897,2.897,234.049,210.095,213.130
0.204,15.737,2.904,2.904,234.080,210.323,213.167
0.206,15.961,2.913,2.913,234.107,210.543,213.198
0.207,16.173,2.924,2.924,234.130,210.752,213.222
0.208,16.368,2.934,2.934,234.146,210.947,213.235
0.210,16.545,2.942,2.942,234.153,211.124,213.235
0.211,16.701,2.948,2.948,234.150,211.279,213.221
0.212,16.838,2.950,2.950,234.137,211.412,213.192
0.214,16.959,2.947,2.947,234.116,211.523,213.149
0.215,17.071,2.941,2.941,234.089,211.617,213.095
0.216,17.175,2.931,2.931,234.059,211.693,213.031
0.217,17.276,2.920,2.920,234.029,211.756,212.958
0.219,17.374,2.907,2.907,234.001,211.806,212.879
0.220,17.469,2.895,2.895,233.978,211.847,212.795
0.221,17.563,2.883,2.883,233.962,211.880,212.708
0.223,17.655,2.874,2.874,233.957,211.907,212.620
0.224,17.746,2.867,2.867,233.963,211.930,212.533
0.225,17.837,2.861,2.861,233.982,211.953,212.448
0.227,17.930,2.854,2.854,234.007,211.978,212.362
0.228,18.026,2.847,2.847,234.031,212.008,212.273
0.229,18.127,2.836,2.836,234.048,212.045,212.180
0.230,18.238,2.822,2.822,234.050,212.094,212.081
0.232,18.364,2.803,2.803,234.030,212.157,211.973
0.233,18.515,2.779,2.779,233.981,212.237,211.855
0.234,18.700,2.749,2.749,233.896,212.336,211.724
0.236,18.929,2.718,2.718,233.770,212.459,211.579
0.237,19.211,2.689,2.689,233.593,212.608,211.417
0.238,19.550,2.665,2.665,233.364,212.783,211.238
0.240,19.938,2.649,2.649,233.091,212.981,211.046
0.241,20.360,2.645,2.645,232.785,213.192,210.846
0.242,20.803,2.657,2.657,232.458,213.412,210.644
0.243,21.255,2.687,2.687,232.118,213.633,210.444
0.245,21.701,2.732,2.732,231.779,213.849,210.251
0.246,22.128,2.790,2.790,231.450,214.053,210.071
0.247,22.523,2.856,2.856,231.142,214.239,209.908
0.249,22.871,2.927,2.927,230.866,214.399,209.769
0.250,23.160,2.998,2.998,230.633,214.528,209.656
0.251,23.379,3.067,3.067,230.451,214.620,209.575
0.253,23.535,3.128,3.128,230.317,214.680,209.524
0.254,23.639,3.180,3.180,230.223,214.714,209.497
0.255,23.701,3.222,3.222,230.162,214.727,209.493
0.257,23.736,3.255,3.255,230.129,214.727,209.507
0.258,23.768,3.278,3.278,230.117,214.720,209.535
0.259,23.809,3.294,3.294,230.119,214.711,209.575
0.260,23.857,3.302,3.302,230.129,214.706,209.622
0.262,23.909,3.302,3.302,230.139,214.713,209.672
0.263,23.965,3.296,3.296,230.143,214.737,209.723
0.264,24.032,3.284,3.284,230.137,214.783,209.771
0.266,24.113,3.267,3.267,230.117,214.850,209.814
0.267,24.210,3.246,3.246,230.086,214.933,209.851
0.268,24.320,3.222,3.222,230.045,215.030,209.882
0.270,24.441,3.197,3.197,229.993,215.136,209.907
0.271,24.570,3.171,3.171,229.932,215.249,209.923
0.272,24.704,3.146,3.146,229.863,215.363,209.931
0.273,24.840,3.122,3.122,229.786,215.476,209.930
0.275,24.977,3.101,3.101,229.702,215.584,209.918
0.276,25.113,3.083,3.083,229.612,215.682,209.895
0.277,25.246,3.068,3.068,229.516,215.769,209.860
0.279,25.378,3.056,3.056,229.417,215.844,209.815
0.280,25.511,3.048,3.048,229.314,215.908,209.761
0.281,25.645,3.044,3.044,229.210,215.965,209.700
0.283,25.779,3.044,3.044,229.105,216.015,209.633
0.284,25.913,3.049,3.049,229.001,216.061,209.562
0.285,26.045,3.058,3.058,228.899,216.104,209.490
0.286,26.176,3.069,3.069,228.800,216.147,209.416
0.288,26.303,3.082,3.082,228.705,216.191,209.345
0.289,26.425,3.096,3.096,228.615,216.238,209.276
0.290,26.543,3.110,3.110,228.532,216.291,209.212
0.292,26.654,3.121,3.121,228.456,216.348,209.153
0.293,26.761,3.131,3.131,228.388,216.410,209.100
0.294,26.861,3.136,3.136,228.327,216.476,209.054
0.296,26.957,3.138,3.138,228.274,216.545,209.014
0.297,27.048,3.137,3.137,228.229,216.616,208.981
0.298,27.133,3.133,3.133,228.192,216.689,208.955
0.299,27.214,3.127,3.127,228.164,216.762,208.937
0.301,27.292,3.118,3.118,228.143,216.836,208.927
0.302,27.366,3.107,3.107,228.132,216.910,208.925
0.303,27.438,3.094,3.094,228.129,216.982,208.931
0.305,27.510,3.080,3.080,228.134,217.052,208.945
0.306,27.581,3.065,3.065,228.146,217.120,208.963
0.307,27.652,3.048,3.048,228.162,217.186,208.983
0.309,27.720,3.032,3.032,228.182,217.249,209.001
0.310,27.786,3.015,3.015,228.203,217.309,209.016
0.311,27.847,2.998,2.998,228.224,217.365,209.024
0.313,27.903,2.982,2.982,228.244,217.419,209.022
0.314,27.957,2.966,2.966,228.260,217.468,209.009
0.315,28.012,2.951,2.951,228.272,217.513,208.980
0.316,28.074,2.937,2.937,228.278,217.553,208.933
0.318,28.148,2.921,2.921,228.276,217.590,208.869
0.319,28.236,2.904,2.904,228.268,217.625,208.788
0.320,28.337,2.886,2.886,228.254,217.658,208.694
0.322,28.450,2.865,2.865,228.235,217.693,208.589
0.323,28.573,2.841,2.841,228.210,217.731,208.474
0.324,28.705,2.813,2.813,228.182,217.773,208.352
0.326,28.844,2.782,2.782,228.149,217.821,208.226
0.327,28.990,2.747,2.747,228.113,217.877,208.097
0.328,29.140,2.709,2.709,228.074,217.942,207.967
0.329,29.294,2.667,2.667,228.032,218.018,207.840
0.331,29.451,2.622,2.622,227.988,218.105,207.716
0.332,29.610,2.574,2.574,227.942,218.200,207.597
0.333,29.769,2.523,2.523,227.894,218.300,207.483
0.335,29.926,2.470,2.470,227.844,218.402,207.375
0.336,30.078,2.416,2.416,227.792,218.503,207.274
0.337,30.224,2.362,2.362,227.738,218.601,207.180
0.339,30.360,2.309,2.309,227.682,218.692,207.095
0.340,30.485,2.260,2.260,227.625,218.773,207.020
0.341,30.598,2.215,2.215,227.565,218.842,206.954
0.342,30.696,2.176,2.176,227.504,218.896,206.899
0.344,30.781,2.146,2.146,227.442,218.933,206.855
0.345,30.852,2.123,2.123,227.383,218.957,206.822
0.346,30.911,2.107,2.107,227.331,218.969,206.797
0.348,30.954,2.097,2.097,227.291,218.973,206.782
0.349,30.980,2.090,2.090,227.266,218.971,206.774
0.350,30.988,2.086,2.086,227.260,218.967,206.772
0.352,31.006,2.083,2.083,227.278,218.964,206.776
0.353,31.051,2.079,2.079,227.322,218.963,206.786
0.354,31.128,2.074,2.074,227.398,218.968,206.799
0.355,31.241,2.064,2.064,227.508,218.982,206.815
0.357,31.391,2.050,2.050,227.656,219.007,206.833
0.358,31.574,2.030,2.030,227.834,219.042,206.849
0.359,31.782,2.002,2.002,228.037,219.088,206.859
0.361,32.010,1.964,1.964,228.258,219.144,206.860
0.362,32.253,1.917,1.917,228.492,219.210,206.847
0.363,32.505,1.857,1.857,228.731,219.285,206.818
0.365,32.763,1.784,1.784,228.969,219.370,206.769
0.366,33.023,1.702,1.702,229.200,219.463,206.695
0.367,33.284,1.615,1.615,229.417,219.565,206.593
0.368,33.546,1.532,1.532,229.614,219.676,206.460
0.370,33.813,1.456,1.456,229.787,219.793,206.294
0.371,34.086,1.394,1.394,229.936,219.916,206.101
0.372,34.363,1.352,1.352,230.063,220.040,205.889
0.374,34.640,1.336,1.336,230.170,220.164,205.665
0.375,34.911,1.349,1.349,230.259,220.283,205.438
0.376,35.171,1.387,1.387,230.331,220.396,205.215
0.378,35.412,1.444,1.444,230.390,220.499,205.005
0.379,35.628,1.512,1.512,230.436,220.589,204.814
0.380,35.811,1.586,1.586,230.472,220.663,204.652
0.382,35.952,1.657,1.657,230.500,220.719,204.524
0.383,36.048,1.720,1.720,230.521,220.754,204.438
0.384,36.102,1.768,1.768,230.536,220.771,204.389
0.385,36.125,1.797,1.797,230.546,220.774,204.369
0.387,36.133,1.809,1.809,230.551,220.768,204.371
0.388,36.154,1.809,1.809,230.550,220.756,204.388
0.389,36.182,1.801,1.801,230.546,220.742,204.412
0.391,36.210,1.787,1.787,230.537,220.730,204.436
0.392,36.232,1.772,1.772,230.524,220.725,204.453
0.393,36.249,1.759,1.759,230.508,220.730,204.456
0.395,36.283,1.752,1.752,230.489,220.750,204.436
0.396,36.348,1.753,1.753,230.468,220.787,204.388
0.397,36.443,1.759,1.759,230.444,220.842,204.313
0.398,36.563,1.771,1.771,230.419,220.909,204.216
0.400,36.704,1.787,1.787,230.392,220.987,204.103
0.401,36.858,1.806,1.806,230.366,221.073,203.977
0.402,37.022,1.826,1.826,230.339,221.163,203.843
0.404,37.188,1.847,1.847,230.314,221.254,203.707
0.405,37.351,1.867,1.867,230.290,221.344,203.572
0.406,37.506,1.886,1.886,230.268,221.429,203.445
0.408,37.647,1.904,1.904,230.248,221.506,203.328
0.409,37.769,1.922,1.922,230.231,221.573,203.228
0.410,37.873,1.939,1.939,230.217,221.632,203.143
0.411,37.963,1.956,1.956,230.205,221.688,203.073
0.413,38.046,1.973,1.973,230.193,221.745,203.015
0.414,38.126,1.990,1.990,230.180,221.808,202.968
0.415,38.212,2.008,2.008,230.165,221.883,202.929
0.417,38.310,2.028,2.028,230.147,221.974,202.897
0.418,38.427,2.052,2.052,230.126,222.086,202.870
0.419,38.569,2.083,2.083,230.099,222.224,202.847
0.421,38.742,2.121,2.121,230.066,222.392,202.824
0.422,38.950,2.170,2.170,230.026,222.595,202.801
0.423,39.191,2.231,2.231,229.981,222.830,202.778
0.424,39.456,2.307,2.307,229.931,223.090,202.753
0.426,39.737,2.397,2.397,229.879,223.365,202.728
0.427,40.026,2.496,2.496,229.828,223.649,202.702
0.428,40.315,2.600,2.600,229.781,223.932,202.676
0.430,40.595,2.704,2.704,229.738,224.207,202.651
0.431,40.858,2.802,2.802,229.703,224.467,202.626
0.432,41.096,2.890,2.890,229.677,224.702,202.601
0.434,41.300,2.961,2.961,229.664,224.905,202.578
0.435,41.465,3.012,3.012,229.664,225.068,202.556
0.436,41.590,3.040,3.040,229.679,225.190,202.535
0.438,41.682,3.051,3.051,229.704,225.276,202.515
0.439,41.749,3.048,3.048,229.739,225.331,202.497
0.440,41.801,3.035,3.035,229.779,225.360,202.480
0.441,41.848,3.017,3.017,229.822,225.367,202.465
0.443,41.894,2.999,2.999,229.866,225.359,202.450
0.444,41.942,2.983,2.983,229.908,225.341,202.438
0.445,41.988,2.975,2.975,229.945,225.316,202.426
0.447,42.028,2.974,2.974,229.974,225.291,202.416
0.448,42.057,2.979,2.979,229.993,225.270,202.408
0.449,42.075,2.989,2.989,230.002,225.257,202.401
0.451,42.082,3.000,3.000,230.002,225.251,202.397
0.452,42.088,3.012,3.012,229.996,225.252,202.398
0.453,42.103,3.022,3.022,229.985,225.261,202.403
0.454,42.127,3.029,3.029,229.972,225.277,202.414
0.456,42.159,3.030,3.030,229.958,225.300,202.432
0.457,42.201,3.027,3.027,229.947,225.330,202.459
0.458,42.253,3.020,3.020,229.940,225.368,202.494
0.460,42.317,3.009,3.009,229.939,225.413,202.540
0.461,42.395,2.996,2.996,229.947,225.465,202.597
0.462,42.487,2.979,2.979,229.964,225.525,202.665
0.464,42.596,2.962,2.962,229.990,225.594,202.744
0.465,42.721,2.943,2.943,230.024,225.674,202.835
0.466,42.864,2.924,2.924,230.065,225.767,202.935
0.467,43.024,2.906,2.906,230.113,225.875,203.044
0.469,43.203,2.892,2.892,230.166,225.998,203.162
0.470,43.401,2.884,2.884,230.224,226.139,203.289
0.471,43.619,2.883,2.883,230.286,226.299,203.423
0.473,43.858,2.892,2.892,230.352,226.480,203.564
0.474,44.119,2.913,2.913,230.419,226.684,203.711
0.475,44.400,2.947,2.947,230.489,226.910,203.864
0.477,44.698,2.994,2.994,230.558,227.154,204.021
0.478,45.006,3.053,3.053,230.628,227.410,204.178
0.479,45.319,3.121,3.121,230.696,227.672,204.333
0.480,45.631,3.195,3.195,230.761,227.937,204.485
0.482,45.936,3.274,3.274,230.824,228.197,204.631
0.483,46.228,3.354,3.354,230.882,228.448,204.769
0.484,46.502,3.434,3.434,230.935,228.685,204.896
0.486,46.751,3.512,3.512,230.982,228.902,205.010
0.487,46.970,3.585,3.585,231.022,229.093,205.109
0.488,47.156,3.654,3.654,231.054,229.256,205.191
0.490,47.309,3.717,3.717,231.079,229.392,205.257
0.491,47.434,3.776,3.776,231.098,229.504,205.309
0.492,47.533,3.828,3.828,231.113,229.593,205.349
0.493,47.609,3.873,3.873,231.123,229.663,205.378
0.495,47.667,3.912,3.912,231.131,229.717,205.397
0.496,47.708,3.943,3.943,231.138,229.756,205.408
0.497,47.737,3.967,3.967,231.143,229.784,205.413
0.499,47.757,3.985,3.985,231.149,229.803,205.413
0.500,47.771,3.997,3.997,231.156,229.815,205.409
0.501,47.785,4.005,4.005,231.165,229.824,205.404
0.503,47.797,4.010,4.010,231.175,229.830,205.398
0.504,47.808,4.012,4.012,231.184,229.833,205.393
0.505,47.816,4.012,4.012,231.190,229.836,205.391
0.507,47.820,4.011,4.011,231.193,229.840,205.392
0.508,47.828,4.009,4.009,231.190,229.844,205.398
0.509,47.846,4.006,4.006,231.180,229.851,205.411
0.510,47.875,4.004,4.004,231.161,229.860,205.431
0.512,47.919,4.003,4.003,231.132,229.874,205.461
0.513,47.979,4.003,4.003,231.091,229.893,205.501
0.514,48.057,4.005,4.005,231.038,229.917,205.552
0.516,48.151,4.008,4.008,230.973,229.947,205.614
0.517,48.257,4.014,4.014,230.900,229.980,205.683
0.518,48.371,4.021,4.021,230.822,230.015,205.758
0.520,48.490,4.030,4.030,230.740,230.052,205.836
0.521,48.608,4.038,4.038,230.659,230.088,205.915
0.522,48.723,4.045,4.045,230.581,230.123,205.992
0.523,48.831,4.052,4.052,230.509,230.155,206.066
0.525,48.929,4.057,4.057,230.445,230.183,206.133
0.526,49.011,4.059,4.059,230.393,230.205,206.193
0.527,49.075,4.059,4.059,230.354,230.220,206.242
0.529,49.123,4.057,4.057,230.327,230.230,206.280
0.530,49.157,4.054,4.054,230.311,230.235,206.309
0.531,49.179,4.052,4.052,230.303,230.237,206.330
