"T","Distance","Radius","FreeRadius","X","Y","Z"
0.000,0.000,1.775,1.775,242.185,205.725,208.694
0.001,0.029,1.786,1.786,242.193,205.708,208.672
0.003,0.058,1.797,1.797,242.201,205.690,208.650
0.004,0.086,1.807,1.807,242.209,205.673,208.630
0.005,0.112,1.816,1.816,242.216,205.657,208.611
0.006,0.136,1.824,1.824,242.223,205.641,208.595
0.008,0.157,1.830,1.830,242.231,205.627,208.581
0.009,0.175,1.834,1.834,242.237,205.613,208.572
0.010,0.190,1.836,1.836,242.244,205.601,208.566
0.012,0.202,1.835,1.835,242.250,205.590,208.565
0.013,0.213,1.831,1.831,242.255,205.581,208.570
0.014,0.227,1.824,1.824,242.260,205.574,208.580
0.015,0.246,1.814,1.814,242.263,205.569,208.599
0.017,0.274,1.801,1.801,242.263,205.564,208.625
0.018,0.312,1.784,1.784,242.258,205.561,208.663
0.019,0.362,1.763,1.763,242.246,205.557,208.712
0.021,0.428,1.739,1.739,242.227,205.553,208.775
0.022,0.512,1.711,1.711,242.199,205.549,208.854
0.023,0.615,1.682,1.682,242.159,205.543,208.949
0.024,0.739,1.653,1.653,242.108,205.536,209.062
0.026,0.888,1.626,1.626,242.042,205.527,209.195
0.027,1.063,1.603,1.603,241.961,205.515,209.349
0.028,1.261,1.586,1.586,241.865,205.501,209.523
0.030,1.480,1.576,1.576,241.756,205.485,209.711
0.031,1.712,1.575,1.575,241.636,205.468,209.910
0.032,1.955,1.584,1.584,241.507,205.450,210.114
0.034,2.202,1.602,1.602,241.371,205.431,210.320
0.035,2.449,1.628,1.628,241.230,205.412,210.522
0.036,2.692,1.662,1.662,241.086,205.394,210.716
0.037,2.926,1.702,1.702,240.940,205.377,210.898
0.039,3.146,1.748,1.748,240.795,205.362,211.063
0.040,3.348,1.800,1.800,240.653,205.348,211.206
0.041,3.532,1.855,1.855,240.515,205.337,211.327
0.043,3.700,1.914,1.914,240.382,205.328,211.429
0.044,3.853,1.974,1.974,240.257,205.320,211.518
0.045,3.995,2.033,2.033,240.140,205.315,211.598
0.046,4.126,2.091,2.091,240.032,205.310,211.673
0.048,4.249,2.145,2.145,239.936,205.307,211.748
0.049,4.364,2.194,2.194,239.852,205.306,211.827
0.050,4.478,2.235,2.235,239.781,205.304,211.916
0.052,4.594,2.269,2.269,239.725,205.304,212.018
0.053,4.721,2.295,2.295,239.685,205.304,212.138
0.054,4.863,2.316,2.316,239.661,205.304,212.278
0.055,5.019,2.335,2.335,239.650,205.306,212.434
0.057,5.185,2.354,2.354,239.646,205.311,212.600
0.058,5.356,2.374,2.374,239.645,205.318,212.770
0.059,5.525,2.398,2.398,239.643,205.330,212.940
0.061,5.689,2.429,2.429,239.636,205.348,213.102
0.062,5.842,2.468,2.468,239.618,205.372,213.252
0.063,5.982,2.514,2.514,239.586,205.403,213.385
0.064,6.108,2.565,2.565,239.535,205.442,213.494
0.066,6.228,2.619,2.619,239.461,205.491,213.574
0.067,6.354,2.675,2.675,239.360,205.549,213.621
0.068,6.495,2.730,2.730,239.237,205.616,213.638
0.070,6.654,2.784,2.784,239.096,205.689,213.630
0.071,6.827,2.833,2.833,238.943,205.765,213.601
0.072,7.010,2.877,2.877,238.784,205.843,213.556
0.073,7.197,2.916,2.916,238.623,205.919,213.500
0.075,7.380,2.950,2.950,238.467,205.993,213.438
0.076,7.553,2.979,2.979,238.321,206.061,213.374
0.077,7.710,3.003,3.003,238.190,206.121,213.314
0.079,7.841,3.022,3.022,238.080,206.172,213.261
0.080,7.942,3.038,3.038,237.996,206.210,213.221
0.081,8.013,3.049,3.049,237.937,206.237,213.194
0.082,8.055,3.056,3.056,237.901,206.253,213.178
0.084,8.075,3.061,3.061,237.884,206.260,213.171
0.085,8.076,3.063,3.063,237.884,206.259,213.172
0.086,8.093,3.064,3.064,237.897,206.253,213.180
0.088,8.122,3.064,3.064,237.921,206.241,213.193
0.089,8.161,3.064,3.064,237.953,206.227,213.208
0.090,8.204,3.065,3.065,237.989,206.210,213.225
0.091,8.249,3.068,3.068,238.027,206.193,213.242
0.093,8.292,3.073,3.073,238.064,206.177,213.256
0.094,8.330,3.079,3.079,238.098,206.162,213.269
0.095,8.363,3.085,3.085,238.127,206.150,213.278
0.097,8.388,3.091,3.091,238.149,206.141,213.285
0.098,8.405,3.096,3.096,238.164,206.135,213.288
0.099,8.411,3.099,3.099,238.170,206.133,213.288
0.101,8.417,3.100,3.100,238.166,206.135,213.286
0.102,8.435,3.098,3.098,238.149,206.142,213.280
0.103,8.468,3.094,3.094,238.120,206.153,213.270
0.104,8.517,3.087,3.087,238.076,206.171,213.257
0.106,8.584,3.080,3.080,238.016,206.194,213.241
0.107,8.668,3.074,3.074,237.940,206.224,213.221
0.108,8.765,3.068,3.068,237.852,206.258,213.199
0.110,8.873,3.065,3.065,237.754,206.296,213.174
0.111,8.987,3.064,3.064,237.650,206.337,213.149
0.112,9.105,3.068,3.068,237.543,206.378,213.123
0.113,9.222,3.076,3.076,237.436,206.420,213.098
0.115,9.336,3.086,3.086,237.333,206.461,213.074
0.116,9.442,3.097,3.097,237.237,206.500,213.051
0.117,9.538,3.110,3.110,237.150,206.535,213.032
0.119,9.618,3.122,3.122,237.077,206.565,213.016
0.120,9.683,3.133,3.133,237.019,206.590,213.004
0.121,9.731,3.142,3.142,236.975,206.610,212.995
0.122,9.767,3.148,3.148,236.944,206.625,212.990
0.124,9.790,3.151,3.151,236.924,206.637,212.986
0.125,9.805,3.152,3.152,236.912,206.645,212.985
0.126,9.812,3.151,3.151,236.907,206.650,212.985
0.128,9.815,3.149,3.149,236.908,206.653,212.985
0.129,9.820,3.146,3.146,236.912,206.655,212.986
0.130,9.826,3.143,3.143,236.919,206.655,212.986
0.131,9.832,3.140,3.140,236.925,206.656,212.986
0.133,9.837,3.138,3.138,236.930,206.656,212.984
0.134,9.842,3.136,3.136,236.932,206.657,212.980
0.135,9.846,3.135,3.135,236.931,206.658,212.976
0.137,9.852,3.135,3.135,236.927,206.661,212.972
0.138,9.862,3.135,3.135,236.919,206.666,212.968
0.139,9.877,3.136,3.136,236.907,206.672,212.965
0.140,9.897,3.137,3.137,236.889,206.681,212.963
0.142,9.923,3.139,3.139,236.865,206.692,212.963
0.143,9.956,3.142,3.142,236.836,206.707,212.966
0.144,9.997,3.144,3.144,236.799,206.725,212.970
0.146,10.046,3.147,3.147,236.756,206.746,212.979
0.147,10.103,3.149,3.149,236.706,206.771,212.989
0.148,10.167,3.152,3.152,236.649,206.798,213.002
0.149,10.237,3.153,3.153,236.587,206.827,213.017
0.151,10.311,3.153,3.153,236.521,206.858,213.032
0.152,10.389,3.153,3.153,236.452,206.888,213.046
0.153,10.468,3.151,3.151,236.379,206.919,213.060
0.155,10.549,3.148,3.148,236.305,206.948,213.072
0.156,10.630,3.144,3.144,236.230,206.976,213.081
0.157,10.710,3.140,3.140,236.154,207.001,213.087
0.159,10.788,3.135,3.135,236.079,207.023,213.089
0.160,10.865,3.130,3.130,236.005,207.042,213.087
0.161,10.941,3.125,3.125,235.930,207.058,213.081
0.162,11.019,3.120,3.120,235.854,207.072,213.071
0.164,11.098,3.116,3.116,235.777,207.083,213.059
0.165,11.179,3.113,3.113,235.698,207.093,213.044
0.166,11.264,3.110,3.110,235.615,207.101,213.028
0.168,11.353,3.110,3.110,235.528,207.109,213.010
0.169,11.447,3.112,3.112,235.436,207.117,212.991
0.170,11.547,3.117,3.117,235.339,207.125,212.971
0.171,11.653,3.125,3.125,235.235,207.134,212.951
0.173,11.765,3.136,3.136,235.125,207.144,212.932
0.174,11.882,3.149,3.149,235.011,207.157,212.913
0.175,12.001,3.164,3.164,234.893,207.173,212.895
0.177,12.122,3.178,3.178,234.776,207.195,212.878
0.178,12.244,3.189,3.189,234.659,207.224,212.862
0.179,12.364,3.198,3.198,234.545,207.260,212.848
0.180,12.482,3.200,3.200,234.437,207.306,212.836
0.182,12.599,3.197,3.197,234.335,207.362,212.825
0.183,12.715,3.185,3.185,234.242,207.430,212.817
0.184,12.830,3.166,3.166,234.160,207.511,212.811
0.186,12.949,3.142,3.142,234.089,207.606,212.807
0.187,13.073,3.114,3.114,234.031,207.716,212.807
0.188,13.204,3.083,3.083,233.984,207.838,212.810
0.189,13.345,3.052,3.052,233.947,207.975,212.816
0.191,13.497,3.021,3.021,233.921,208.124,212.826
0.192,13.660,2.992,2.992,233.904,208.285,212.840
0.193,13.835,2.966,2.966,233.896,208.458,212.858
0.195,14.021,2.944,2.944,233.896,208.644,212.881
0.196,14.220,2.926,2.926,233.904,208.840,212.908
0.197,14.430,2.912,2.912,233.919,209.048,212.941
0.198,14.652,2.901,2.901,233.941,209.265,212.978
0.200,14.883,2.895,2.895,233.968,209.491,213.020
0.201,15.118,2.892,2.892,233.998,209.720,213.062
0.202,15.355,2.894,2.894,234.029,209.951,213.104
0.204,15.590,2.899,2.899,234.061,210.180,213.144
0.205,15.817,2.907,2.907,234.090,210.403,213.179
0.206,16.035,2.917,2.917,234.116,210.618,213.208
0.207,16.240,2.927,2.927,234.136,210.820,213.227
0.209,16.427,2.937,2.937,234.149,211.007,213.236
0.210,16.596,2.944,2.944,234.153,211.176,213.232
0.211,16.744,2.949,2.949,234.147,211.322,213.214
0.213,16.874,2.949,2.949,234.132,211.447,213.181
0.214,16.991,2.946,2.946,234.109,211.552,213.135
0.215,17.099,2.938,2.938,234.081,211.640,213.078
0.216,17.201,2.928,2.928,234.051,211.711,213.012
0.218,17.300,2.916,2.916,234.022,211.770,212.938
0.219,17.396,2.904,2.904,233.995,211.817,212.858
0.220,17.490,2.892,2.892,233.974,211.855,212.775
0.222,17.583,2.881,2.881,233.960,211.886,212.688
0.223,17.674,2.872,2.872,233.957,211.912,212.601
0.224,17.763,2.866,2.866,233.966,211.935,212.516
0.226,17.853,2.860,2.860,233.987,211.958,212.431
0.227,17.946,2.853,2.853,234.012,211.983,212.346
0.228,18.042,2.845,2.845,234.035,212.014,212.257
0.229,18.143,2.834,2.834,234.049,212.053,212.165
0.231,18.255,2.820,2.820,234.048,212.103,212.065
0.232,18.383,2.800,2.800,234.024,212.167,211.957
0.233,18.536,2.775,2.775,233.972,212.249,211.838
0.235,18.724,2.745,2.745,233.883,212.350,211.707
0.236,18.956,2.714,2.714,233.752,212.475,211.561
0.237,19.242,2.686,2.686,233.572,212.625,211.399
0.238,19.583,2.663,2.663,233.340,212.801,211.221
0.240,19.970,2.648,2.648,233.067,212.998,211.030
0.241,20.390,2.646,2.646,232.762,213.208,210.832
0.242,20.830,2.658,2.658,232.437,213.426,210.631
0.244,21.277,2.689,2.689,232.101,213.645,210.434
0.245,21.718,2.734,2.734,231.765,213.858,210.243
0.246,22.140,2.792,2.792,231.440,214.059,210.066
0.247,22.529,2.857,2.857,231.136,214.243,209.905
0.249,22.873,2.927,2.927,230.864,214.401,209.767
0.250,23.158,2.998,2.998,230.633,214.528,209.656
0.251,23.376,3.066,3.066,230.453,214.619,209.576
0.253,23.531,3.127,3.127,230.319,214.679,209.524
0.254,23.635,3.179,3.179,230.225,214.713,209.498
0.255,23.697,3.220,3.220,230.164,214.727,209.493
0.256,23.733,3.253,3.253,230.131,214.728,209.506
0.258,23.765,3.277,3.277,230.118,214.720,209.533
0.259,23.804,3.293,3.293,230.119,214.711,209.572
0.260,23.851,3.301,3.301,230.128,214.706,209.618
0.262,23.903,3.302,3.302,230.138,214.712,209.668
0.263,23.958,3.297,3.297,230.143,214.734,209.718
0.264,24.022,3.285,3.285,230.138,214.777,209.765
0.265,24.101,3.269,3.269,230.120,214.840,209.809
0.267,24.195,3.249,3.249,230.091,214.921,209.846
0.268,24.302,3.225,3.225,230.051,215.015,209.878
0.269,24.420,3.201,3.201,230.002,215.120,209.903
0.271,24.547,3.175,3.175,229.943,215.230,209.921
0.272,24.679,3.150,3.150,229.875,215.343,209.930
0.273,24.814,3.126,3.126,229.800,215.455,209.931
0.274,24.949,3.105,3.105,229.719,215.563,209.921
0.276,25.084,3.086,3.086,229.631,215.663,209.901
0.277,25.216,3.071,3.071,229.537,215.751,209.869
0.278,25.347,3.058,3.058,229.440,215.828,209.826
0.280,25.478,3.049,3.049,229.339,215.894,209.775
0.281,25.610,3.044,3.044,229.236,215.951,209.716
0.282,25.743,3.044,3.044,229.132,216.002,209.651
0.284,25.875,3.047,3.047,229.029,216.049,209.582
0.285,26.007,3.055,3.055,228.927,216.092,209.510
0.286,26.137,3.066,3.066,228.828,216.134,209.437
0.287,26.264,3.078,3.078,228.732,216.177,209.366
0.289,26.387,3.092,3.092,228.642,216.223,209.297
0.290,26.504,3.106,3.106,228.558,216.273,209.232
0.291,26.617,3.118,3.118,228.481,216.329,209.172
0.293,26.724,3.128,3.128,228.411,216.389,209.118
0.294,26.825,3.135,3.135,228.348,216.452,209.069
0.295,26.922,3.138,3.138,228.293,216.520,209.028
0.296,27.013,3.138,3.138,228.245,216.589,208.992
0.298,27.100,3.135,3.135,228.205,216.661,208.964
0.299,27.182,3.130,3.130,228.174,216.734,208.943
0.300,27.260,3.122,3.122,228.151,216.807,208.930
0.302,27.334,3.112,3.112,228.136,216.879,208.925
0.303,27.406,3.100,3.100,228.129,216.951,208.927
0.304,27.477,3.086,3.086,228.131,217.022,208.938
0.305,27.548,3.071,3.071,228.140,217.090,208.955
0.307,27.619,3.056,3.056,228.154,217.156,208.974
0.308,27.687,3.039,3.039,228.172,217.220,208.993
0.309,27.754,3.023,3.023,228.193,217.281,209.010
0.311,27.816,3.006,3.006,228.214,217.338,209.021
0.312,27.875,2.990,2.990,228.235,217.393,209.024
0.313,27.929,2.974,2.974,228.253,217.443,209.017
0.314,27.982,2.959,2.959,228.267,217.490,208.997
0.316,28.039,2.944,2.944,228.276,217.533,208.960
0.317,28.105,2.930,2.930,228.278,217.571,208.906
0.318,28.185,2.914,2.914,228.273,217.606,208.834
0.320,28.278,2.897,2.897,228.263,217.640,208.748
0.321,28.383,2.877,2.877,228.246,217.673,208.650
0.322,28.499,2.855,2.855,228.225,217.709,208.541
0.323,28.625,2.830,2.830,228.199,217.748,208.424
0.325,28.759,2.801,2.801,228.169,217.792,208.302
0.326,28.899,2.769,2.769,228.135,217.842,208.175
0.327,29.045,2.733,2.733,228.098,217.901,208.047
0.329,29.195,2.694,2.694,228.058,217.969,207.920
0.330,29.349,2.651,2.651,228.016,218.048,207.795
0.331,29.505,2.606,2.606,227.972,218.137,207.674
0.332,29.663,2.557,2.557,227.926,218.233,207.557
0.334,29.820,2.506,2.506,227.878,218.333,207.447
0.335,29.974,2.453,2.453,227.828,218.434,207.342
0.336,30.122,2.399,2.399,227.776,218.534,207.244
0.338,30.264,2.346,2.346,227.722,218.629,207.154
0.339,30.396,2.294,2.294,227.666,218.716,207.073
0.340,30.517,2.247,2.247,227.608,218.794,207.000
0.341,30.624,2.204,2.204,227.549,218.858,206.938
0.343,30.718,2.168,2.168,227.488,218.907,206.887
0.344,30.798,2.139,2.139,227.427,218.940,206.846
0.345,30.866,2.118,2.118,227.370,218.960,206.815
0.347,30.920,2.104,2.104,227.321,218.970,206.793
0.348,30.960,2.095,2.095,227.284,218.973,206.779
0.349,30.982,2.089,2.089,227.263,218.971,206.773
0.351,30.987,2.085,2.085,227.262,218.967,206.772
0.352,31.009,2.082,2.082,227.284,218.963,206.778
0.353,31.060,2.078,2.078,227.333,218.963,206.788
0.354,31.141,2.072,2.072,227.413,218.970,206.801
0.356,31.259,2.063,2.063,227.529,218.985,206.818
0.357,31.413,2.048,2.048,227.680,219.011,206.835
0.358,31.598,2.027,2.027,227.860,219.048,206.850
0.360,31.807,1.998,1.998,228.063,219.094,206.860
0.361,32.035,1.960,1.960,228.284,219.151,206.859
0.362,32.276,1.911,1.911,228.516,219.217,206.845
0.363,32.526,1.850,1.850,228.753,219.293,206.815
0.365,32.782,1.777,1.777,228.988,219.377,206.764
0.366,33.039,1.695,1.695,229.216,219.470,206.689
0.367,33.297,1.610,1.610,229.430,219.572,206.586
0.369,33.557,1.528,1.528,229.624,219.681,206.452
0.370,33.822,1.453,1.453,229.794,219.798,206.286
0.371,34.092,1.392,1.392,229.940,219.920,206.094
0.372,34.366,1.351,1.351,230.065,220.043,205.884
0.374,34.640,1.336,1.336,230.171,220.165,205.662
0.375,34.909,1.349,1.349,230.259,220.283,205.438
0.376,35.166,1.387,1.387,230.331,220.395,205.217
0.378,35.405,1.443,1.443,230.389,220.497,205.009
0.379,35.620,1.510,1.510,230.435,220.586,204.820
0.380,35.801,1.583,1.583,230.471,220.660,204.657
0.381,35.944,1.654,1.654,230.499,220.716,204.530
0.383,36.040,1.717,1.717,230.520,220.752,204.443
0.384,36.096,1.765,1.765,230.535,220.770,204.392
0.385,36.120,1.795,1.795,230.546,220.774,204.370
0.387,36.128,1.809,1.809,230.550,220.769,204.371
0.388,36.148,1.811,1.811,230.551,220.757,204.387
0.389,36.175,1.803,1.803,230.546,220.743,204.411
0.390,36.204,1.790,1.790,230.538,220.731,204.435
0.392,36.226,1.775,1.775,230.526,220.725,204.453
0.393,36.243,1.761,1.761,230.511,220.729,204.457
0.394,36.273,1.753,1.753,230.492,220.746,204.441
0.396,36.332,1.751,1.751,230.471,220.780,204.397
0.397,36.423,1.756,1.756,230.448,220.831,204.326
0.398,36.539,1.767,1.767,230.423,220.896,204.233
0.399,36.675,1.781,1.781,230.398,220.972,204.122
0.401,36.827,1.799,1.799,230.371,221.056,203.999
0.402,36.987,1.819,1.819,230.345,221.144,203.867
0.403,37.152,1.841,1.841,230.320,221.235,203.733
0.405,37.314,1.862,1.862,230.295,221.324,203.599
0.406,37.469,1.884,1.884,230.273,221.409,203.472
0.407,37.611,1.905,1.905,230.253,221.488,203.356
0.409,37.734,1.925,1.925,230.236,221.556,203.255
0.410,37.838,1.945,1.945,230.221,221.615,203.171
0.411,37.927,1.964,1.964,230.208,221.670,203.101
0.412,38.007,1.982,1.982,230.196,221.725,203.044
0.414,38.083,1.998,1.998,230.183,221.784,202.998
0.415,38.164,2.014,2.014,230.169,221.854,202.959
0.416,38.256,2.029,2.029,230.153,221.938,202.926
0.418,38.366,2.047,2.047,230.133,222.042,202.897
0.419,38.499,2.069,2.069,230.109,222.169,202.869
0.420,38.661,2.099,2.099,230.079,222.326,202.840
0.421,38.857,2.138,2.138,230.042,222.516,202.807
0.423,39.089,2.188,2.188,229.999,222.741,202.770
0.424,39.347,2.253,2.253,229.951,222.992,202.731
0.425,39.625,2.334,2.334,229.901,223.262,202.692
0.427,39.913,2.428,2.428,229.851,223.543,202.654
0.428,40.203,2.530,2.530,229.802,223.826,202.619
0.429,40.485,2.635,2.635,229.758,224.104,202.590
0.430,40.753,2.739,2.739,229.719,224.368,202.568
0.432,40.997,2.837,2.837,229.689,224.610,202.556
0.433,41.210,2.923,2.923,229.669,224.822,202.556
0.434,41.384,2.993,2.993,229.662,224.996,202.568
0.436,41.517,3.042,3.042,229.669,225.126,202.595
0.437,41.616,3.072,3.072,229.687,225.217,202.630
0.438,41.690,3.083,3.083,229.716,225.274,202.667
0.439,41.748,3.077,3.077,229.752,225.305,202.700
0.441,41.795,3.055,3.055,229.792,225.315,202.721
0.442,41.838,3.018,3.018,229.835,225.311,202.725
0.443,41.887,2.969,2.969,229.878,225.299,202.705
0.445,41.953,2.907,2.907,229.919,225.285,202.655
0.446,42.048,2.835,2.835,229.954,225.275,202.567
0.447,42.183,2.755,2.755,229.983,225.276,202.436
0.448,42.364,2.670,2.670,230.002,225.293,202.257
0.450,42.590,2.582,2.582,230.012,225.326,202.033
0.451,42.854,2.494,2.494,230.013,225.370,201.773
0.452,43.147,2.408,2.408,230.005,225.423,201.485
0.454,43.461,2.327,2.327,229.990,225.482,201.176
0.455,43.788,2.253,2.253,229.967,225.544,200.856
0.456,44.119,2.188,2.188,229.937,225.605,200.532
0.457,44.447,2.131,2.131,229.902,225.663,200.212
0.459,44.761,2.084,2.084,229.861,225.713,199.904
0.460,45.055,2.045,2.045,229.814,225.754,199.617
0.461,45.321,2.015,2.015,229.764,225.781,199.357
0.463,45.559,1.992,1.992,229.709,225.796,199.127
0.464,45.771,1.978,1.978,229.650,225.798,198.923
0.465,45.962,1.973,1.973,229.588,225.790,198.742
0.466,46.137,1.974,1.974,229.522,225.772,198.581
0.468,46.298,1.983,1.983,229.453,225.747,198.438
0.469,46.449,1.997,1.997,229.381,225.715,198.308
0.470,46.594,2.017,2.017,229.306,225.679,198.190
0.472,46.735,2.041,2.041,229.229,225.639,198.079
0.473,46.874,2.069,2.069,229.149,225.596,197.974
0.474,47.012,2.101,2.101,229.068,225.554,197.870
0.476,47.151,2.134,2.134,228.984,225.511,197.767
0.477,47.289,2.169,2.169,228.901,225.469,197.666
0.478,47.423,2.206,2.206,228.820,225.429,197.567
0.479,47.552,2.242,2.242,228.742,225.390,197.472
0.481,47.674,2.279,2.279,228.668,225.354,197.382
0.482,47.788,2.315,2.315,228.600,225.320,197.298
0.483,47.891,2.349,2.349,228.539,225.290,197.220
0.485,47.982,2.381,2.381,228.488,225.263,197.150
0.486,48.059,2.411,2.411,228.446,225.241,197.089
0.487,48.120,2.438,2.438,228.417,225.223,197.038
0.488,48.166,2.461,2.461,228.400,225.210,196.998
0.490,48.199,2.480,2.480,228.394,225.201,196.967
0.491,48.221,2.494,2.494,228.397,225.197,196.945
0.492,48.239,2.503,2.503,228.408,225.197,196.930
0.494,48.258,2.506,2.506,228.424,225.201,196.923
0.495,48.280,2.502,2.502,228.445,225.207,196.922
0.496,48.305,2.492,2.492,228.468,225.217,196.926
0.497,48.333,2.476,2.476,228.492,225.229,196.934
0.499,48.363,2.458,2.458,228.515,225.244,196.945
0.500,48.393,2.438,2.438,228.536,225.260,196.959
0.501,48.422,2.418,2.418,228.553,225.278,196.974
0.503,48.448,2.402,2.402,228.565,225.297,196.988
0.504,48.471,2.390,2.390,228.573,225.316,197.000
0.505,48.491,2.385,2.385,228.576,225.333,197.006
0.506,48.507,2.387,2.387,228.575,225.349,197.005
0.508,48.525,2.395,2.395,228.568,225.363,196.995
0.509,48.552,2.407,2.407,228.557,225.373,196.972
0.510,48.593,2.418,2.418,228.541,225.380,196.936
0.512,48.650,2.427,2.427,228.519,225.381,196.883
0.513,48.726,2.431,2.431,228.492,225.377,196.812
0.514,48.823,2.427,2.427,228.460,225.366,196.721
0.515,48.939,2.412,2.412,228.425,225.352,196.612
0.517,49.067,2.386,2.386,228.389,225.338,196.489
0.518,49.205,2.350,2.350,228.355,225.327,196.356
0.519,49.346,2.304,2.304,228.326,225.323,196.218
0.521,49.487,2.253,2.253,228.305,225.330,196.079
0.522,49.626,2.196,2.196,228.295,225.351,195.942
0.523,49.762,2.137,2.137,228.298,225.390,195.811
0.524,49.898,2.077,2.077,228.317,225.451,195.692
0.526,50.038,2.017,2.017,228.355,225.537,195.587
