"T","Distance","Radius","FreeRadius","X","Y","Z"
0.000,0.000,1.775,1.775,242.185,205.725,208.694
0.001,0.026,1.785,1.785,242.192,205.709,208.674
0.002,0.052,1.796,1.796,242.199,205.694,208.655
0.004,0.077,1.805,1.805,242.206,205.679,208.636
0.005,0.101,1.814,1.814,242.213,205.664,208.619
0.006,0.124,1.822,1.822,242.220,205.650,208.603
0.007,0.144,1.828,1.828,242.226,205.636,208.589
0.009,0.162,1.833,1.833,242.232,205.623,208.578
0.010,0.177,1.835,1.835,242.238,205.611,208.570
0.011,0.190,1.835,1.835,242.244,205.601,208.566
0.012,0.201,1.833,1.833,242.249,205.591,208.565
0.013,0.212,1.828,1.828,242.254,205.583,208.569
0.015,0.223,1.821,1.821,242.259,205.576,208.577
0.016,0.238,1.812,1.812,242.262,205.571,208.591
0.017,0.259,1.800,1.800,242.263,205.566,208.611
0.018,0.288,1.787,1.787,242.261,205.563,208.640
0.019,0.326,1.771,1.771,242.255,205.559,208.677
0.021,0.375,1.754,1.754,242.243,205.556,208.724
0.022,0.436,1.735,1.735,242.225,205.553,208.782
0.023,0.511,1.715,1.715,242.199,205.549,208.853
0.024,0.602,1.695,1.695,242.165,205.544,208.937
0.026,0.710,1.675,1.675,242.120,205.538,209.035
0.027,0.837,1.657,1.657,242.065,205.530,209.149
0.028,0.984,1.641,1.641,241.998,205.520,209.280
0.029,1.152,1.627,1.627,241.918,205.509,209.427
0.030,1.338,1.617,1.617,241.828,205.496,209.589
0.032,1.537,1.611,1.611,241.727,205.481,209.760
0.033,1.748,1.609,1.609,241.618,205.465,209.940
0.034,1.965,1.613,1.613,241.502,205.449,210.123
0.035,2.186,1.622,1.622,241.380,205.432,210.307
0.036,2.408,1.637,1.637,241.254,205.415,210.488
0.038,2.626,1.658,1.658,241.126,205.399,210.664
0.039,2.838,1.687,1.687,240.995,205.383,210.831
0.040,3.041,1.723,1.723,240.865,205.369,210.985
0.041,3.231,1.766,1.766,240.736,205.356,211.124
0.043,3.406,1.816,1.816,240.610,205.344,211.245
0.044,3.566,1.870,1.870,240.488,205.335,211.348
0.045,3.714,1.927,1.927,240.370,205.327,211.438
0.046,3.851,1.983,1.983,240.259,205.320,211.517
0.047,3.979,2.037,2.037,240.153,205.315,211.589
0.049,4.098,2.086,2.086,240.056,205.311,211.656
0.050,4.209,2.129,2.129,239.967,205.308,211.723
0.051,4.314,2.163,2.163,239.887,205.306,211.792
0.052,4.416,2.189,2.189,239.817,205.305,211.866
0.054,4.518,2.210,2.210,239.759,205.304,211.950
0.055,4.624,2.226,2.226,239.714,205.304,212.046
0.056,4.740,2.242,2.242,239.681,205.304,212.157
0.057,4.868,2.260,2.260,239.661,205.304,212.284
0.058,5.008,2.282,2.282,239.650,205.306,212.423
0.060,5.156,2.312,2.312,239.646,205.310,212.570
0.061,5.308,2.350,2.350,239.645,205.316,212.722
0.062,5.460,2.400,2.400,239.644,205.325,212.874
0.063,5.609,2.459,2.459,239.640,205.338,213.023
0.064,5.752,2.523,2.523,239.630,205.356,213.164
0.066,5.885,2.592,2.592,239.610,205.380,213.293
0.067,6.007,2.663,2.663,239.578,205.409,213.407
0.068,6.119,2.732,2.732,239.530,205.446,213.502
0.069,6.226,2.798,2.798,239.463,205.490,213.573
0.071,6.338,2.858,2.858,239.374,205.541,213.617
0.072,6.461,2.910,2.910,239.267,205.600,213.637
0.073,6.599,2.954,2.954,239.145,205.664,213.636
0.074,6.750,2.991,2.991,239.012,205.731,213.616
0.075,6.910,3.020,3.020,238.872,205.800,213.583
0.077,7.075,3.043,3.043,238.728,205.869,213.538
0.078,7.242,3.059,3.059,238.585,205.937,213.486
0.079,7.404,3.070,3.070,238.447,206.002,213.430
0.080,7.559,3.076,3.076,238.317,206.063,213.373
0.082,7.699,3.077,3.077,238.200,206.117,213.318
0.083,7.820,3.074,3.074,238.099,206.163,213.270
0.084,7.917,3.069,3.069,238.018,206.200,213.231
0.085,7.989,3.061,3.061,237.958,206.227,213.203
0.086,8.038,3.054,3.054,237.916,206.246,213.184
0.088,8.066,3.046,3.046,237.892,206.257,213.174
0.089,8.077,3.040,3.040,237.882,206.260,213.171
0.090,8.082,3.037,3.037,237.885,206.259,213.173
0.091,8.098,3.038,3.038,237.899,206.252,213.181
0.092,8.125,3.042,3.042,237.920,206.242,213.192
0.094,8.159,3.050,3.050,237.948,206.229,213.206
0.095,8.197,3.060,3.060,237.980,206.214,213.221
0.096,8.237,3.071,3.071,238.014,206.199,213.236
0.097,8.276,3.083,3.083,238.048,206.184,213.250
0.099,8.313,3.094,3.094,238.080,206.170,213.262
0.100,8.346,3.103,3.103,238.108,206.158,213.272
0.101,8.373,3.109,3.109,238.132,206.148,213.280
0.102,8.394,3.111,3.111,238.151,206.140,213.285
0.103,8.408,3.111,3.111,238.164,206.135,213.288
0.105,8.414,3.107,3.107,238.170,206.133,213.289
0.106,8.418,3.102,3.102,238.167,206.134,213.286
0.107,8.432,3.096,3.096,238.156,206.139,213.282
0.108,8.456,3.089,3.089,238.134,206.148,213.274
0.109,8.494,3.083,3.083,238.100,206.161,213.264
0.111,8.544,3.077,3.077,238.055,206.179,213.252
0.112,8.609,3.072,3.072,237.996,206.202,213.236
0.113,8.687,3.069,3.069,237.926,206.230,213.217
0.114,8.775,3.068,3.068,237.845,206.261,213.197
0.116,8.872,3.068,3.068,237.758,206.295,213.175
0.117,8.974,3.070,3.070,237.665,206.331,213.153
0.118,9.079,3.073,3.073,237.570,206.368,213.130
0.119,9.184,3.077,3.077,237.474,206.405,213.107
0.120,9.288,3.083,3.083,237.380,206.442,213.085
0.122,9.387,3.091,3.091,237.290,206.478,213.064
0.123,9.478,3.099,3.099,237.207,206.511,213.045
0.124,9.560,3.108,3.108,237.132,206.542,213.028
0.125,9.630,3.118,3.118,237.069,206.568,213.014
0.127,9.687,3.127,3.127,237.018,206.590,213.004
0.128,9.731,3.136,3.136,236.979,206.608,212.996
0.129,9.764,3.143,3.143,236.950,206.623,212.990
0.130,9.787,3.148,3.148,236.929,206.634,212.987
0.131,9.803,3.152,3.152,236.916,206.642,212.985
0.133,9.812,3.153,3.153,236.909,206.648,212.984
0.134,9.816,3.152,3.152,236.907,206.652,212.985
0.135,9.819,3.149,3.149,236.909,206.654,212.985
0.136,9.824,3.145,3.145,236.914,206.655,212.986
0.137,9.830,3.142,3.142,236.919,206.656,212.986
0.139,9.835,3.138,3.138,236.925,206.656,212.986
0.140,9.840,3.135,3.135,236.929,206.655,212.984
0.141,9.843,3.133,3.133,236.931,206.656,212.982
0.142,9.846,3.133,3.133,236.931,206.656,212.979
0.144,9.851,3.135,3.135,236.929,206.658,212.975
0.145,9.858,3.137,3.137,236.923,206.661,212.972
0.146,9.868,3.141,3.141,236.915,206.666,212.969
0.147,9.883,3.145,3.145,236.902,206.672,212.966
0.148,9.901,3.150,3.150,236.885,206.680,212.965
0.150,9.925,3.154,3.154,236.864,206.691,212.965
0.151,9.954,3.157,3.157,236.838,206.704,212.966
0.152,9.989,3.159,3.159,236.807,206.720,212.970
0.153,10.031,3.161,3.161,236.771,206.739,212.975
0.155,10.080,3.161,3.161,236.728,206.762,212.983
0.156,10.134,3.160,3.160,236.681,206.787,212.993
0.157,10.193,3.158,3.158,236.629,206.814,213.004
0.158,10.257,3.156,3.156,236.574,206.842,213.016
0.159,10.324,3.154,3.154,236.514,206.870,213.029
0.161,10.393,3.151,3.151,236.452,206.898,213.042
0.162,10.464,3.148,3.148,236.387,206.926,213.054
0.163,10.537,3.144,3.144,236.321,206.952,213.065
0.164,10.609,3.141,3.141,236.253,206.975,213.075
0.165,10.682,3.138,3.138,236.184,206.996,213.083
0.167,10.754,3.134,3.134,236.114,207.013,213.089
0.168,10.824,3.130,3.130,236.045,207.027,213.092
0.169,10.895,3.127,3.127,235.976,207.037,213.092
0.170,10.965,3.123,3.123,235.906,207.045,213.090
0.172,11.036,3.119,3.119,235.835,207.051,213.085
0.173,11.108,3.115,3.115,235.763,207.056,213.077
0.174,11.182,3.111,3.111,235.691,207.062,213.066
0.175,11.258,3.108,3.108,235.616,207.069,213.052
0.176,11.336,3.108,3.108,235.540,207.077,213.035
0.178,11.418,3.110,3.110,235.462,207.088,213.016
0.179,11.503,3.115,3.115,235.381,207.103,212.993
0.180,11.592,3.123,3.123,235.298,207.122,212.968
0.181,11.685,3.137,3.137,235.212,207.146,212.940
0.182,11.784,3.156,3.156,235.124,207.176,212.909
0.184,11.886,3.179,3.179,235.032,207.209,212.878
0.185,11.990,3.204,3.204,234.939,207.245,212.848
0.186,12.097,3.231,3.231,234.843,207.283,212.820
0.187,12.204,3.256,3.256,234.746,207.322,212.796
0.189,12.311,3.278,3.278,234.648,207.360,212.777
0.190,12.418,3.294,3.294,234.549,207.397,212.766
0.191,12.524,3.304,3.304,234.449,207.432,212.762
0.192,12.629,3.304,3.304,234.348,207.462,212.769
0.193,12.735,3.295,3.295,234.247,207.489,212.786
0.195,12.842,3.278,3.278,234.147,207.509,212.817
0.196,12.952,3.254,3.254,234.047,207.524,212.861
0.197,13.066,3.226,3.226,233.948,207.533,212.916
0.198,13.183,3.196,3.196,233.851,207.537,212.981
0.200,13.302,3.165,3.165,233.756,207.537,213.054
0.201,13.423,3.135,3.135,233.664,207.534,213.132
0.202,13.543,3.108,3.108,233.575,207.529,213.213
0.203,13.661,3.086,3.086,233.490,207.523,213.295
0.204,13.775,3.069,3.069,233.410,207.516,213.376
0.206,13.884,3.055,3.055,233.335,207.509,213.454
0.207,13.985,3.044,3.044,233.265,207.504,213.526
0.208,14.076,3.036,3.036,233.202,207.501,213.592
0.209,14.156,3.030,3.030,233.145,207.501,213.648
0.210,14.225,3.025,3.025,233.095,207.503,213.695
0.212,14.285,3.021,3.021,233.050,207.508,213.735
0.213,14.337,3.017,3.017,233.010,207.516,213.767
0.214,14.383,3.012,3.012,232.974,207.525,213.795
0.215,14.424,3.007,3.007,232.942,207.536,213.818
0.217,14.462,3.002,3.002,232.912,207.547,213.839
0.218,14.498,2.996,2.996,232.884,207.560,213.857
0.219,14.534,2.990,2.990,232.856,207.573,213.876
0.220,14.569,2.984,2.984,232.830,207.586,213.895
0.221,14.606,2.977,2.977,232.802,207.599,213.916
0.223,14.645,2.969,2.969,232.774,207.611,213.940
0.224,14.688,2.961,2.961,232.744,207.622,213.968
0.225,14.733,2.953,2.953,232.713,207.633,213.998
0.226,14.779,2.944,2.944,232.681,207.642,214.031
0.227,14.826,2.936,2.936,232.650,207.651,214.065
0.229,14.872,2.929,2.929,232.620,207.659,214.099
0.230,14.917,2.922,2.922,232.591,207.666,214.132
0.231,14.959,2.916,2.916,232.564,207.672,214.164
0.232,14.997,2.911,2.911,232.540,207.678,214.193
0.234,15.030,2.907,2.907,232.519,207.682,214.219
0.235,15.058,2.905,2.905,232.502,207.686,214.240
0.236,15.079,2.903,2.903,232.489,207.689,214.257
0.237,15.093,2.902,2.902,232.481,207.692,214.267
0.238,15.100,2.902,2.902,232.477,207.694,214.273
0.240,15.103,2.901,2.901,232.476,207.696,214.275
0.241,15.106,2.900,2.900,232.477,207.698,214.275
0.242,15.110,2.899,2.899,232.479,207.702,214.273
0.243,15.116,2.896,2.896,232.480,207.707,214.271
0.245,15.123,2.893,2.893,232.481,207.714,214.271
0.246,15.133,2.888,2.888,232.478,207.724,214.273
0.247,15.148,2.882,2.882,232.472,207.736,214.279
0.248,15.170,2.874,2.874,232.462,207.752,214.291
0.249,15.200,2.865,2.865,232.446,207.771,214.308
0.251,15.242,2.853,2.853,232.423,207.795,214.333
0.252,15.294,2.838,2.838,232.393,207.823,214.366
0.253,15.357,2.821,2.821,232.359,207.857,214.405
0.254,15.428,2.801,2.801,232.321,207.897,214.451
0.255,15.507,2.779,2.779,232.281,207.943,214.501
0.257,15.592,2.755,2.755,232.242,207.997,214.555
0.258,15.684,2.729,2.729,232.203,208.058,214.611
0.259,15.782,2.702,2.702,232.167,208.127,214.670
0.260,15.885,2.674,2.674,232.136,208.206,214.729
0.262,15.994,2.646,2.646,232.111,208.294,214.788
0.263,16.109,2.617,2.617,232.094,208.392,214.846
0.264,16.232,2.588,2.588,232.086,208.501,214.902
0.265,16.363,2.560,2.560,232.088,208.620,214.956
0.266,16.500,2.532,2.532,232.096,208.747,215.006
0.268,16.642,2.505,2.505,232.109,208.880,215.055
0.269,16.786,2.479,2.479,232.121,209.015,215.103
0.270,16.928,2.454,2.454,232.130,209.149,215.149
0.271,17.067,2.430,2.430,232.132,209.280,215.196
0.273,17.200,2.408,2.408,232.124,209.405,215.242
0.274,17.327,2.388,2.388,232.102,209.520,215.289
0.275,17.447,2.370,2.370,232.063,209.623,215.337
0.276,17.564,2.355,2.355,232.004,209.711,215.387
0.277,17.685,2.343,2.343,231.920,209.782,215.439
0.279,17.818,2.334,2.334,231.810,209.831,215.494
0.280,17.969,2.329,2.329,231.674,209.861,215.551
0.281,18.137,2.328,2.328,231.517,209.874,215.610
0.282,18.319,2.332,2.332,231.345,209.871,215.671
0.283,18.513,2.341,2.341,231.162,209.857,215.731
0.285,18.713,2.355,2.355,230.973,209.834,215.792
0.286,18.914,2.372,2.372,230.782,209.804,215.851
0.287,19.113,2.391,2.391,230.596,209.770,215.909
0.288,19.303,2.411,2.411,230.417,209.735,215.965
0.290,19.479,2.432,2.432,230.252,209.702,216.018
0.291,19.637,2.452,2.452,230.106,209.673,216.067
0.292,19.770,2.469,2.469,229.982,209.650,216.112
0.293,19.877,2.484,2.484,229.884,209.636,216.152
0.294,19.960,2.494,2.494,229.809,209.629,216.188
0.296,20.021,2.501,2.501,229.756,209.628,216.218
0.297,20.063,2.506,2.506,229.722,209.632,216.243
0.298,20.090,2.508,2.508,229.705,209.639,216.262
0.299,20.107,2.509,2.509,229.703,209.649,216.276
0.300,20.123,2.508,2.508,229.713,209.658,216.283
0.302,20.144,2.508,2.508,229.733,209.668,216.285
0.303,20.173,2.508,2.508,229.760,209.675,216.280
0.304,20.208,2.508,2.508,229.793,209.679,216.269
0.305,20.248,2.509,2.509,229.829,209.679,216.252
0.307,20.293,2.511,2.511,229.866,209.673,216.228
0.308,20.339,2.511,2.511,229.901,209.663,216.199
0.309,20.386,2.511,2.511,229.934,209.649,216.169
0.310,20.428,2.510,2.510,229.961,209.635,216.140
0.311,20.464,2.507,2.507,229.982,209.622,216.115
0.313,20.488,2.501,2.501,229.995,209.611,216.097
0.314,20.499,2.492,2.492,229.997,209.605,216.089
0.315,20.510,2.481,2.481,229.987,209.605,216.093
0.316,20.542,2.469,2.469,229.963,209.613,216.113
0.318,20.600,2.457,2.457,229.923,209.630,216.151
0.319,20.687,2.446,2.446,229.865,209.659,216.210
0.320,20.808,2.437,2.437,229.788,209.702,216.293
0.321,20.962,2.431,2.431,229.692,209.757,216.400
0.322,21.143,2.429,2.429,229.581,209.823,216.526
0.324,21.344,2.432,2.432,229.458,209.898,216.666
0.325,21.559,2.442,2.442,229.327,209.978,216.817
0.326,21.782,2.455,2.455,229.192,210.062,216.973
0.327,22.006,2.472,2.472,229.057,210.146,217.131
0.328,22.225,2.491,2.491,228.925,210.228,217.285
0.330,22.432,2.510,2.510,228.801,210.306,217.431
0.331,22.621,2.528,2.528,228.687,210.376,217.564
0.332,22.785,2.544,2.544,228.588,210.437,217.681
0.333,22.919,2.557,2.557,228.508,210.486,217.776
0.335,23.017,2.565,2.565,228.449,210.522,217.846
0.336,23.083,2.569,2.569,228.409,210.544,217.894
0.337,23.122,2.569,2.569,228.387,210.557,217.923
0.338,23.138,2.566,2.566,228.378,210.561,217.936
0.339,23.142,2.561,2.561,228.382,210.559,217.937
0.341,23.158,2.555,2.555,228.395,210.553,217.930
0.342,23.182,2.547,2.547,228.414,210.546,217.917
0.343,23.209,2.539,2.539,228.437,210.539,217.904
0.344,23.237,2.532,2.532,228.461,210.535,217.892
0.345,23.261,2.525,2.525,228.484,210.536,217.886
0.347,23.281,2.518,2.518,228.503,210.543,217.889
0.348,23.307,2.511,2.511,228.516,210.560,217.905
0.349,23.346,2.505,2.505,228.522,210.585,217.933
0.350,23.398,2.499,2.499,228.521,210.619,217.972
0.352,23.461,2.493,2.493,228.516,210.659,218.021
0.353,23.533,2.487,2.487,228.506,210.705,218.076
0.354,23.612,2.480,2.480,228.494,210.755,218.136
0.355,23.696,2.474,2.474,228.479,210.808,218.199
0.356,23.782,2.468,2.468,228.464,210.862,218.263
0.358,23.867,2.462,2.462,228.448,210.917,218.327
0.359,23.949,2.456,2.456,228.434,210.970,218.387
0.360,24.025,2.452,2.452,228.421,211.022,218.442
0.361,24.094,2.448,2.448,228.412,211.070,218.490
0.363,24.154,2.445,2.445,228.407,211.114,218.531
0.364,24.206,2.444,2.444,228.404,211.154,218.565
0.365,24.254,2.444,2.444,228.405,211.191,218.595
0.366,24.298,2.444,2.444,228.409,211.225,218.623
0.367,24.342,2.446,2.446,228.414,211.258,218.651
0.369,24.386,2.447,2.447,228.421,211.290,218.681
0.370,24.433,2.449,2.449,228.428,211.322,218.715
0.371,24.485,2.449,2.449,228.437,211.354,218.755
0.372,24.545,2.448,2.448,228.445,211.387,218.803
0.373,24.613,2.446,2.446,228.453,211.422,218.862
0.375,24.694,2.442,2.442,228.460,211.459,218.933
0.376,24.788,2.435,2.435,228.466,211.500,219.018
0.377,24.895,2.428,2.428,228.470,211.543,219.116
0.378,25.013,2.418,2.418,228.472,211.587,219.225
0.380,25.138,2.408,2.408,228.472,211.632,219.342
0.381,25.269,2.397,2.397,228.468,211.676,219.465
0.382,25.402,2.386,2.386,228.461,211.718,219.591
0.383,25.536,2.375,2.375,228.450,211.756,219.719
0.384,25.667,2.364,2.364,228.434,211.791,219.844
0.386,25.794,2.353,2.353,228.414,211.820,219.966
0.387,25.915,2.342,2.342,228.388,211.843,220.082
0.388,26.028,2.332,2.332,228.357,211.858,220.189
0.389,26.131,2.322,2.322,228.320,211.864,220.286
0.391,26.226,2.312,2.312,228.277,211.861,220.370
0.392,26.317,2.302,2.302,228.230,211.848,220.447
0.393,26.407,2.292,2.292,228.180,211.824,220.518
0.394,26.499,2.283,2.283,228.129,211.790,220.587
0.395,26.597,2.273,2.273,228.079,211.744,220.657
0.397,26.703,2.263,2.263,228.030,211.687,220.731
0.398,26.819,2.253,2.253,227.986,211.617,220.813
0.399,26.949,2.242,2.242,227.947,211.535,220.906
0.400,27.095,2.231,2.231,227.915,211.440,221.012
0.401,27.261,2.219,2.219,227.891,211.331,221.136
0.403,27.450,2.207,2.207,227.878,211.209,221.280
0.404,27.665,2.193,2.193,227.876,211.073,221.446
0.405,27.901,2.178,2.178,227.884,210.926,221.630
0.406,28.153,2.163,2.163,227.901,210.771,221.828
0.408,28.413,2.148,2.148,227.923,210.612,222.033
0.409,28.677,2.134,2.134,227.951,210.452,222.241
0.410,28.937,2.121,2.121,227.980,210.294,222.445
0.411,29.186,2.110,2.110,228.011,210.142,222.641
0.412,29.419,2.102,2.102,228.040,209.999,222.822
0.414,29.628,2.098,2.098,228.066,209.868,222.983
0.415,29.808,2.098,2.098,228.087,209.753,223.119
0.416,29.951,2.101,2.101,228.101,209.657,223.224
0.417,30.052,2.108,2.108,228.106,209.583,223.293
0.418,30.113,2.117,2.117,228.102,209.532,223.327
0.420,30.146,2.128,2.128,228.092,209.501,223.333
0.421,30.171,2.139,2.139,228.079,209.487,223.317
0.422,30.204,2.150,2.150,228.063,209.486,223.288
0.423,30.243,2.160,2.160,228.049,209.496,223.253
0.425,30.284,2.168,2.168,228.038,209.514,223.219
0.426,30.319,2.174,2.174,228.032,209.537,223.192
0.427,30.347,2.179,2.179,228.034,209.562,223.181
0.428,30.376,2.184,2.184,228.047,209.586,223.193
0.429,30.429,2.191,2.191,228.072,209.606,223.234
0.431,30.518,2.200,2.200,228.113,209.619,223.313
0.432,30.651,2.213,2.213,228.170,209.623,223.433
0.433,30.824,2.232,2.232,228.242,209.619,223.590
0.434,31.030,2.257,2.257,228.326,209.607,223.777
0.436,31.263,2.289,2.289,228.422,209.589,223.989
0.437,31.516,2.327,2.327,228.526,209.565,224.218
0.438,31.783,2.369,2.369,228.637,209.537,224.460
0.439,32.056,2.415,2.415,228.752,209.506,224.706
0.440,32.330,2.461,2.461,228.869,209.473,224.951
0.442,32.598,2.508,2.508,228.986,209.438,225.189
0.443,32.852,2.552,2.552,229.102,209.403,225.413
0.444,33.087,2.593,2.593,229.213,209.370,225.617
0.445,33.296,2.630,2.630,229.319,209.338,225.795
0.446,33.479,2.661,2.661,229.418,209.308,225.946
0.448,33.638,2.688,2.688,229.511,209.280,226.072
0.449,33.777,2.711,2.711,229.599,209.253,226.176
0.450,33.899,2.733,2.733,229.683,209.228,226.260
0.451,34.006,2.753,2.753,229.763,209.204,226.327
0.453,34.101,2.773,2.773,229.840,209.180,226.378
0.454,34.189,2.793,2.793,229.915,209.157,226.417
0.455,34.270,2.815,2.815,229.988,209.134,226.445
0.456,34.349,2.838,2.838,230.060,209.111,226.465
0.457,34.426,2.863,2.863,230.132,209.087,226.480
0.459,34.502,2.888,2.888,230.204,209.062,226.491
0.460,34.580,2.913,2.913,230.276,209.037,226.501
0.461,34.659,2.938,2.938,230.350,209.011,226.509
0.462,34.738,2.961,2.961,230.424,208.984,226.516
0.464,34.818,2.983,2.983,230.499,208.956,226.522
0.465,34.898,3.003,3.003,230.574,208.928,226.528
0.466,34.979,3.019,3.019,230.650,208.900,226.532
0.467,35.060,3.034,3.034,230.726,208.872,226.536
0.468,35.141,3.047,3.047,230.802,208.844,226.540
0.470,35.223,3.059,3.059,230.878,208.816,226.544
0.471,35.304,3.070,3.070,230.955,208.788,226.548
0.472,35.385,3.081,3.081,231.031,208.761,226.552
0.473,35.466,3.092,3.092,231.107,208.735,226.557
0.474,35.546,3.103,3.103,231.182,208.707,226.562
0.476,35.625,3.116,3.116,231.255,208.678,226.569
0.477,35.703,3.130,3.130,231.325,208.644,226.579
0.478,35.781,3.144,3.144,231.391,208.605,226.592
0.479,35.859,3.156,3.156,231.451,208.558,226.609
0.481,35.940,3.167,3.167,231.506,208.503,226.631
0.482,36.025,3.176,3.176,231.553,208.437,226.658
0.483,36.119,3.180,3.180,231.592,208.359,226.691
0.484,36.223,3.181,3.181,231.621,208.267,226.731
0.485,36.342,3.176,3.176,231.640,208.159,226.778
0.487,36.479,3.167,3.167,231.648,208.035,226.834
0.488,36.633,3.154,3.154,231.643,207.894,226.898
0.489,36.802,3.140,3.140,231.626,207.742,226.969
0.490,36.983,3.125,3.125,231.597,207.580,227.044
0.491,37.171,3.112,3.112,231.556,207.415,227.123
0.493,37.363,3.102,3.102,231.501,207.249,227.204
0.494,37.557,3.096,3.096,231.434,207.087,227.286
0.495,37.748,3.097,3.097,231.354,206.933,227.366
0.496,37.935,3.104,3.104,231.261,206.790,227.443
