"T","Distance","Radius","FreeRadius","X","Y","Z"
0.000,0.000,1.077,1.077,99.990,-51.377,0.897
0.002,0.035,1.085,1.085,100.000,-51.359,0.925
0.004,0.070,1.094,1.094,100.009,-51.341,0.953
0.006,0.104,1.102,1.102,100.018,-51.324,0.981
0.008,0.137,1.111,1.111,100.026,-51.308,1.009
0.010,0.169,1.121,1.121,100.033,-51.293,1.037
0.012,0.200,1.131,1.131,100.038,-51.281,1.065
0.015,0.231,1.141,1.141,100.042,-51.271,1.094
0.017,0.260,1.150,1.150,100.044,-51.263,1.122
0.019,0.289,1.159,1.159,100.043,-51.260,1.150
0.021,0.317,1.166,1.166,100.039,-51.259,1.179
0.023,0.347,1.171,1.171,100.033,-51.263,1.208
0.025,0.378,1.176,1.176,100.023,-51.271,1.237
0.027,0.413,1.181,1.181,100.010,-51.284,1.266
0.029,0.451,1.186,1.186,99.994,-51.302,1.295
0.031,0.493,1.192,1.192,99.974,-51.324,1.324
0.033,0.538,1.200,1.200,99.951,-51.349,1.354
0.035,0.587,1.210,1.210,99.926,-51.378,1.384
0.037,0.638,1.223,1.223,99.899,-51.410,1.415
0.039,0.692,1.238,1.238,99.870,-51.443,1.446
0.041,0.748,1.257,1.257,99.839,-51.477,1.477
0.044,0.805,1.278,1.278,99.808,-51.512,1.509
0.046,0.863,1.299,1.299,99.775,-51.547,1.542
0.048,0.920,1.317,1.317,99.743,-51.581,1.576
0.050,0.978,1.330,1.330,99.711,-51.614,1.610
0.052,1.035,1.336,1.336,99.679,-51.645,1.645
0.054,1.090,1.334,1.334,99.648,-51.674,1.681
0.056,1.145,1.328,1.328,99.617,-51.701,1.717
0.058,1.199,1.319,1.319,99.586,-51.727,1.752
0.060,1.252,1.310,1.310,99.555,-51.755,1.786
0.062,1.305,1.303,1.303,99.523,-51.785,1.816
0.064,1.359,1.302,1.302,99.490,-51.818,1.842
0.066,1.416,1.308,1.308,99.454,-51.857,1.863
0.068,1.477,1.325,1.325,99.415,-51.903,1.878
0.071,1.546,1.355,1.355,99.374,-51.956,1.885
0.073,1.623,1.401,1.401,99.328,-52.019,1.884
0.075,1.712,1.458,1.458,99.279,-52.092,1.873
0.077,1.816,1.518,1.518,99.224,-52.178,1.852
0.079,1.937,1.575,1.575,99.164,-52.277,1.819
0.081,2.076,1.622,1.622,99.098,-52.391,1.773
0.083,2.232,1.655,1.655,99.027,-52.517,1.716
0.085,2.401,1.681,1.681,98.951,-52.652,1.648
0.087,2.581,1.708,1.708,98.871,-52.794,1.571
0.089,2.769,1.744,1.744,98.788,-52.940,1.487
0.091,2.962,1.799,1.799,98.701,-53.086,1.396
0.093,3.157,1.876,1.876,98.612,-53.231,1.300
0.095,3.351,1.965,1.965,98.522,-53.370,1.200
0.098,3.541,2.057,2.057,98.430,-53.501,1.097
0.100,3.725,2.139,2.139,98.338,-53.622,0.993
0.102,3.900,2.202,2.202,98.246,-53.729,0.890
0.104,4.064,2.242,2.242,98.155,-53.820,0.787
0.106,4.216,2.267,2.267,98.065,-53.891,0.687
0.108,4.356,2.286,2.286,97.977,-53.942,0.591
0.110,4.485,2.306,2.306,97.891,-53.976,0.501
0.112,4.605,2.338,2.338,97.806,-53.996,0.419
0.114,4.717,2.383,2.383,97.722,-54.007,0.346
0.116,4.820,2.436,2.436,97.639,-54.011,0.285
0.118,4.915,2.492,2.492,97.557,-54.012,0.236
0.120,5.003,2.544,2.544,97.476,-54.014,0.203
0.122,5.086,2.588,2.588,97.395,-54.020,0.186
0.124,5.167,2.620,2.620,97.315,-54.035,0.188
0.127,5.255,2.638,2.638,97.235,-54.060,0.210
0.129,5.355,2.641,2.641,97.154,-54.101,0.254
0.131,5.476,2.627,2.627,97.074,-54.160,0.322
0.133,5.623,2.594,2.594,96.993,-54.241,0.415
0.135,5.799,2.546,2.546,96.912,-54.344,0.532
0.137,5.999,2.488,2.488,96.831,-54.463,0.670
0.139,6.217,2.426,2.426,96.751,-54.597,0.824
0.141,6.449,2.367,2.367,96.674,-54.740,0.990
0.143,6.690,2.315,2.315,96.598,-54.889,1.163
0.145,6.934,2.273,2.273,96.526,-55.039,1.341
0.147,7.176,2.242,2.242,96.457,-55.188,1.519
0.149,7.410,2.225,2.225,96.392,-55.331,1.693
0.151,7.631,2.223,2.223,96.333,-55.464,1.859
0.154,7.833,2.235,2.235,96.278,-55.584,2.012
0.156,8.011,2.258,2.258,96.230,-55.686,2.150
0.158,8.159,2.286,2.286,96.189,-55.766,2.267
0.160,8.274,2.313,2.313,96.154,-55.822,2.361
0.162,8.359,2.333,2.333,96.128,-55.856,2.433
0.164,8.418,2.341,2.341,96.109,-55.873,2.488
0.166,8.460,2.342,2.342,96.097,-55.876,2.527
0.168,8.489,2.337,2.337,96.094,-55.870,2.555
0.170,8.512,2.330,2.330,96.098,-55.859,2.576
0.172,8.536,2.326,2.326,96.111,-55.847,2.591
0.174,8.562,2.323,2.323,96.132,-55.839,2.606
0.176,8.596,2.319,2.319,96.162,-55.838,2.622
0.178,8.642,2.308,2.308,96.199,-55.850,2.645
0.180,8.704,2.285,2.285,96.246,-55.877,2.676
0.183,8.789,2.244,2.244,96.302,-55.925,2.719
0.185,8.903,2.185,2.185,96.366,-55.998,2.779
0.187,9.048,2.115,2.115,96.439,-56.097,2.855
0.189,9.220,2.040,2.040,96.518,-56.219,2.947
0.191,9.413,1.967,1.967,96.601,-56.360,3.050
0.193,9.623,1.903,1.903,96.687,-56.515,3.162
0.195,9.844,1.852,1.852,96.773,-56.680,3.280
0.197,10.070,1.817,1.817,96.857,-56.852,3.401
0.199,10.296,1.798,1.798,96.937,-57.026,3.522
0.201,10.516,1.797,1.797,97.011,-57.197,3.639
0.203,10.726,1.817,1.817,97.076,-57.361,3.751
0.205,10.919,1.853,1.853,97.131,-57.515,3.853
0.207,11.089,1.896,1.896,97.174,-57.654,3.943
0.210,11.233,1.938,1.938,97.202,-57.774,4.018
0.212,11.346,1.969,1.969,97.213,-57.871,4.075
0.214,11.429,1.983,1.983,97.209,-57.944,4.113
0.216,11.488,1.981,1.981,97.193,-57.996,4.137
0.218,11.532,1.971,1.971,97.170,-58.031,4.147
0.220,11.566,1.959,1.959,97.144,-58.052,4.147
0.222,11.594,1.951,1.951,97.118,-58.062,4.140
0.224,11.619,1.954,1.954,97.096,-58.064,4.128
0.226,11.638,1.965,1.965,97.083,-58.062,4.114
0.228,11.653,1.977,1.977,97.083,-58.057,4.100
0.230,11.673,1.985,1.985,97.100,-58.055,4.090
0.232,11.710,1.982,1.982,97.138,-58.057,4.085
0.234,11.774,1.964,1.964,97.200,-58.067,4.089
0.237,11.869,1.934,1.934,97.291,-58.088,4.104
0.239,12.000,1.896,1.896,97.415,-58.123,4.133
0.241,12.165,1.854,1.854,97.567,-58.172,4.174
0.243,12.359,1.811,1.811,97.745,-58.232,4.225
0.245,12.576,1.773,1.773,97.941,-58.301,4.284
0.247,12.810,1.745,1.745,98.152,-58.379,4.350
0.249,13.056,1.732,1.732,98.373,-58.464,4.418
0.251,13.308,1.741,1.741,98.598,-58.553,4.489
0.253,13.561,1.778,1.778,98.822,-58.645,4.558
0.255,13.808,1.841,1.841,99.042,-58.738,4.625
0.257,14.045,1.915,1.915,99.250,-58.831,4.687
0.259,14.265,1.986,1.986,99.444,-58.922,4.741
0.261,14.464,2.035,2.035,99.617,-59.008,4.786
0.263,14.636,2.049,2.049,99.765,-59.089,4.819
0.266,14.778,2.026,2.026,99.884,-59.163,4.839
0.268,14.893,1.979,1.979,99.977,-59.231,4.846
0.270,14.986,1.925,1.925,100.045,-59.294,4.841
0.272,15.062,1.881,1.881,100.091,-59.352,4.824
0.274,15.128,1.861,1.861,100.117,-59.406,4.797
0.276,15.192,1.867,1.867,100.125,-59.457,4.759
0.278,15.260,1.891,1.891,100.118,-59.506,4.711
0.280,15.337,1.923,1.923,100.097,-59.553,4.654
0.282,15.423,1.953,1.953,100.066,-59.600,4.589
0.284,15.519,1.972,1.972,100.026,-59.647,4.516
0.286,15.623,1.978,1.978,99.980,-59.696,4.436
0.288,15.735,1.973,1.973,99.930,-59.745,4.349
0.290,15.854,1.957,1.957,99.878,-59.798,4.256
0.293,15.977,1.934,1.934,99.826,-59.853,4.159
0.295,16.104,1.905,1.905,99.775,-59.911,4.059
0.297,16.232,1.873,1.873,99.725,-59.971,3.958
0.299,16.358,1.843,1.843,99.677,-60.032,3.858
0.301,16.482,1.819,1.819,99.632,-60.094,3.761
0.303,16.601,1.806,1.806,99.590,-60.158,3.669
0.305,16.713,1.807,1.807,99.553,-60.221,3.585
0.307,16.817,1.818,1.818,99.521,-60.285,3.509
0.309,16.911,1.836,1.836,99.495,-60.348,3.444
0.311,16.994,1.855,1.855,99.476,-60.410,3.392
0.313,17.066,1.873,1.873,99.464,-60.471,3.355
0.315,17.129,1.885,1.885,99.461,-60.530,3.335
0.317,17.186,1.890,1.890,99.466,-60.587,3.333
0.320,17.245,1.890,1.890,99.480,-60.642,3.348
0.322,17.310,1.885,1.885,99.501,-60.695,3.378
0.324,17.382,1.874,1.874,99.529,-60.747,3.421
0.326,17.463,1.859,1.859,99.562,-60.799,3.474
0.328,17.551,1.841,1.841,99.600,-60.850,3.535
0.330,17.644,1.824,1.824,99.641,-60.900,3.601
0.332,17.741,1.809,1.809,99.685,-60.951,3.671
0.334,17.840,1.799,1.799,99.731,-61.003,3.741
0.336,17.938,1.794,1.794,99.777,-61.055,3.810
0.338,18.034,1.792,1.792,99.823,-61.109,3.875
0.340,18.126,1.790,1.790,99.868,-61.164,3.934
0.342,18.214,1.785,1.785,99.911,-61.221,3.984
0.344,18.296,1.774,1.774,99.951,-61.281,4.024
0.346,18.373,1.758,1.758,99.988,-61.342,4.055
0.349,18.447,1.740,1.740,100.022,-61.403,4.077
0.351,18.516,1.723,1.723,100.053,-61.463,4.092
0.353,18.582,1.711,1.711,100.081,-61.522,4.100
0.355,18.644,1.706,1.706,100.107,-61.578,4.104
0.357,18.702,1.708,1.708,100.130,-61.631,4.103
0.359,18.755,1.716,1.716,100.150,-61.680,4.100
0.361,18.802,1.727,1.727,100.168,-61.723,4.094
0.363,18.842,1.738,1.738,100.183,-61.760,4.088
0.365,18.875,1.747,1.747,100.196,-61.790,4.083
0.367,18.899,1.753,1.753,100.206,-61.811,4.078
0.369,18.913,1.757,1.757,100.214,-61.823,4.076
0.371,18.920,1.759,1.759,100.219,-61.827,4.077
0.373,18.926,1.760,1.760,100.223,-61.823,4.080
0.376,18.936,1.758,1.758,100.225,-61.815,4.084
0.378,18.948,1.756,1.756,100.226,-61.803,4.089
0.380,18.962,1.752,1.752,100.225,-61.791,4.095
0.382,18.975,1.748,1.748,100.224,-61.779,4.099
0.384,18.985,1.743,1.743,100.223,-61.770,4.103
0.386,18.989,1.739,1.739,100.222,-61.765,4.104
0.388,18.992,1.737,1.737,100.220,-61.767,4.103
0.390,19.004,1.738,1.738,100.220,-61.778,4.099
0.392,19.027,1.746,1.746,100.220,-61.799,4.090
0.394,19.063,1.761,1.761,100.221,-61.833,4.077
0.396,19.114,1.786,1.786,100.224,-61.880,4.059
0.398,19.179,1.815,1.815,100.229,-61.942,4.036
0.400,19.258,1.846,1.846,100.237,-62.014,4.008
0.402,19.347,1.873,1.873,100.249,-62.097,3.975
0.405,19.445,1.892,1.892,100.265,-62.187,3.940
0.407,19.551,1.903,1.903,100.287,-62.283,3.901
0.409,19.662,1.908,1.908,100.315,-62.383,3.860
0.411,19.779,1.912,1.912,100.350,-62.484,3.816
0.413,19.898,1.919,1.919,100.392,-62.587,3.772
0.415,20.019,1.933,1.933,100.443,-62.687,3.726
0.417,20.143,1.953,1.953,100.504,-62.784,3.680
0.419,20.267,1.971,1.971,100.574,-62.875,3.633
0.421,20.392,1.981,1.981,100.656,-62.958,3.588
0.423,20.520,1.973,1.973,100.749,-63.033,3.543
0.425,20.650,1.942,1.942,100.852,-63.100,3.499
0.427,20.784,1.888,1.888,100.964,-63.159,3.457
0.429,20.920,1.824,1.824,101.084,-63.211,3.416
0.432,21.060,1.761,1.761,101.209,-63.258,3.376
0.434,21.202,1.711,1.711,101.339,-63.301,3.338
0.436,21.346,1.686,1.686,101.473,-63.339,3.302
0.438,21.490,1.683,1.683,101.608,-63.374,3.267
0.440,21.634,1.687,1.687,101.744,-63.408,3.233
0.442,21.776,1.687,1.687,101.879,-63.440,3.202
0.444,21.916,1.668,1.668,102.012,-63.472,3.172
0.446,22.052,1.622,1.622,102.141,-63.504,3.145
0.448,22.183,1.550,1.550,102.265,-63.538,3.119
0.450,22.308,1.464,1.464,102.383,-63.574,3.096
0.452,22.428,1.374,1.374,102.495,-63.613,3.078
0.454,22.543,1.293,1.293,102.601,-63.656,3.065
0.456,22.654,1.230,1.230,102.701,-63.703,3.060
0.459,22.762,1.189,1.189,102.796,-63.754,3.065
0.461,22.868,1.174,1.174,102.885,-63.810,3.081
0.463,22.976,1.189,1.189,102.968,-63.873,3.109
0.465,23.088,1.236,1.236,103.045,-63.942,3.152
0.467,23.208,1.315,1.315,103.117,-64.017,3.211
0.469,23.340,1.414,1.414,103.184,-64.101,3.288
0.471,23.486,1.516,1.516,103.245,-64.192,3.385
0.473,23.650,1.605,1.605,103.300,-64.292,3.502
0.475,23.835,1.666,1.666,103.350,-64.402,3.642
0.477,24.039,1.691,1.691,103.395,-64.520,3.803
0.479,24.259,1.698,1.698,103.435,-64.643,3.981
0.481,24.492,1.703,1.703,103.469,-64.771,4.173
0.483,24.734,1.728,1.728,103.498,-64.900,4.375
0.485,24.980,1.790,1.790,103.523,-65.029,4.583
0.488,25.228,1.895,1.895,103.542,-65.156,4.795
0.490,25.472,2.023,2.023,103.556,-65.278,5.006
0.492,25.709,2.155,2.155,103.566,-65.394,5.213
0.494,25.936,2.269,2.269,103.571,-65.501,5.412
0.496,26.147,2.345,2.345,103.571,-65.597,5.600
0.498,26.339,2.378,2.378,103.567,-65.681,5.774
0.500,26.509,2.380,2.380,103.559,-65.749,5.929
0.502,26.653,2.367,2.367,103.546,-65.802,6.062
0.504,26.774,2.351,2.351,103.529,-65.839,6.176
0.506,26.874,2.347,2.347,103.508,-65.864,6.270
0.508,26.956,2.359,2.359,103.485,-65.879,6.347
0.510,27.023,2.382,2.382,103.459,-65.885,6.409
0.512,27.078,2.413,2.413,103.430,-65.885,6.456
0.515,27.124,2.448,2.448,103.400,-65.882,6.491
0.517,27.163,2.483,2.483,103.369,-65.876,6.514
0.519,27.198,2.516,2.516,103.337,-65.871,6.528
0.521,27.231,2.548,2.548,103.305,-65.869,6.533
0.523,27.263,2.578,2.578,103.273,-65.872,6.533
0.525,27.296,2.607,2.607,103.242,-65.882,6.527
0.527,27.333,2.634,2.634,103.211,-65.901,6.518
0.529,27.377,2.659,2.659,103.182,-65.932,6.507
0.531,27.429,2.681,2.681,103.156,-65.974,6.495
0.533,27.491,2.701,2.701,103.132,-66.031,6.484
0.535,27.566,2.716,2.716,103.111,-66.102,6.475
0.537,27.656,2.728,2.728,103.093,-66.190,6.470
0.539,27.762,2.737,2.737,103.081,-66.296,6.469
0.541,27.887,2.744,2.744,103.073,-66.420,6.474
0.544,28.032,2.749,2.749,103.070,-66.564,6.487
0.546,28.199,2.754,2.754,103.073,-66.730,6.509
0.548,28.391,2.761,2.761,103.083,-66.919,6.541
0.550,28.608,2.773,2.773,103.100,-67.132,6.584
0.552,28.854,2.794,2.794,103.125,-67.369,6.641
0.554,29.129,2.829,2.829,103.157,-67.634,6.711
0.556,29.432,2.881,2.881,103.198,-67.922,6.794
0.558,29.755,2.954,2.954,103.245,-68.228,6.888
0.560,30.094,3.048,3.048,103.297,-68.547,6.989
0.562,30.443,3.164,3.164,103.353,-68.874,7.094
0.564,30.794,3.301,3.301,103.413,-69.204,7.202
0.566,31.144,3.460,3.460,103.474,-69.531,7.309
0.568,31.485,3.636,3.636,103.536,-69.850,7.412
0.571,31.811,3.817,3.817,103.598,-70.155,7.509
0.573,32.117,3.991,3.991,103.658,-70.442,7.597
0.575,32.397,4.147,4.147,103.716,-70.705,7.674
0.577,32.645,4.272,4.272,103.769,-70.939,7.736
0.579,32.854,4.365,4.365,103.818,-71.138,7.781
0.581,33.023,4.431,4.431,103.860,-71.298,7.806
0.583,33.152,4.480,4.480,103.898,-71.423,7.814
0.585,33.250,4.518,4.518,103.930,-71.514,7.808
0.587,33.321,4.552,4.552,103.958,-71.577,7.790
0.589,33.374,4.583,4.583,103.982,-71.616,7.764
0.591,33.417,4.609,4.609,104.004,-71.634,7.731
0.593,33.457,4.625,4.625,104.023,-71.635,7.695
0.595,33.499,4.628,4.628,104.041,-71.623,7.660
0.598,33.542,4.615,4.615,104.058,-71.602,7.627
0.600,33.583,4.589,4.589,104.075,-71.575,7.599
0.602,33.621,4.556,4.556,104.092,-71.548,7.581
0.604,33.652,4.522,4.522,104.111,-71.524,7.573
0.606,33.681,4.492,4.492,104.132,-71.506,7.580
0.608,33.714,4.473,4.473,104.154,-71.496,7.602
0.610,33.758,4.463,4.463,104.179,-71.494,7.638
0.612,33.813,4.460,4.460,104.206,-71.497,7.687
0.614,33.879,4.464,4.464,104.234,-71.504,7.746
0.616,33.954,4.470,4.470,104.263,-71.513,7.814
0.618,34.035,4.478,4.478,104.294,-71.521,7.889
0.620,34.122,4.485,4.485,104.325,-71.528,7.970
0.622,34.212,4.491,4.491,104.357,-71.531,8.054
0.624,34.303,4.493,4.493,104.389,-71.528,8.139
0.627,34.395,4.490,4.490,104.421,-71.518,8.225
0.629,34.487,4.481,4.481,104.453,-71.498,8.309
0.631,34.579,4.464,4.464,104.484,-71.468,8.389
0.633,34.670,4.439,4.439,104.515,-71.425,8.464
0.635,34.763,4.404,4.404,104.544,-71.371,8.534
0.637,34.854,4.359,4.359,104.572,-71.312,8.597
0.639,34.941,4.306,4.306,104.598,-71.252,8.654
0.641,35.020,4.257,4.257,104.623,-71.197,8.705
0.643,35.087,4.223,4.223,104.645,-71.152,8.750
0.645,35.140,4.216,4.216,104.664,-71.121,8.789
0.647,35.179,4.246,4.246,104.680,-71.111,8.822
0.649,35.212,4.312,4.312,104.693,-71.125,8.849
0.651,35.262,4.393,4.393,104.703,-71.170,8.870
0.654,35.344,4.464,4.464,104.708,-71.250,8.886
0.656,35.465,4.506,4.506,104.709,-71.370,8.895
0.658,35.630,4.495,4.495,104.706,-71.536,8.898
0.660,35.846,4.430,4.430,104.698,-71.751,8.895
0.662,36.106,4.325,4.325,104.686,-72.011,8.888
0.664,36.405,4.195,4.195,104.671,-72.309,8.876
0.666,36.735,4.056,4.056,104.655,-72.639,8.860
0.668,37.091,3.922,3.922,104.638,-72.993,8.842
0.670,37.464,3.800,3.800,104.621,-73.365,8.823
0.672,37.848,3.695,3.695,104.606,-73.749,8.803
0.674,38.236,3.608,3.608,104.594,-74.137,8.783
0.676,38.622,3.543,3.543,104.586,-74.522,8.764
0.678,38.999,3.502,3.502,104.583,-74.898,8.747
0.680,39.359,3.481,3.481,104.585,-75.258,8.733
0.683,39.696,3.475,3.475,104.595,-75.595,8.723
0.685,40.004,3.477,3.477,104.613,-75.902,8.718
0.687,40.279,3.483,3.483,104.640,-76.176,8.717
0.689,40.524,3.486,3.486,104.675,-76.419,8.720
0.691,40.743,3.486,3.486,104.717,-76.633,8.723
0.693,40.937,3.487,3.487,104.766,-76.821,8.726
0.695,41.112,3.488,3.488,104.820,-76.987,8.726
0.697,41.270,3.491,3.491,104.878,-77.134,8.722
0.699,41.414,3.497,3.497,104.941,-77.264,8.711
0.701,41.549,3.504,3.504,105.006,-77.380,8.692
0.703,41.678,3.510,3.510,105.073,-77.486,8.662
0.705,41.804,3.513,3.513,105.141,-77.584,8.621
0.707,41.933,3.509,3.509,105.209,-77.678,8.565
0.710,42.067,3.498,3.498,105.277,-77.769,8.493
0.712,42.212,3.481,3.481,105.343,-77.862,8.404
0.714,42.369,3.460,3.460,105.408,-77.957,8.297
0.716,42.536,3.435,3.435,105.470,-78.053,8.176
0.718,42.710,3.409,3.409,105.529,-78.149,8.043
0.720,42.890,3.383,3.383,105.587,-78.244,7.901
0.722,43.073,3.361,3.361,105.642,-78.338,7.754
0.724,43.256,3.346,3.346,105.694,-78.428,7.604
0.726,43.436,3.341,3.341,105.744,-78.515,7.454
0.728,43.611,3.348,3.348,105.791,-78.597,7.307
0.730,43.778,3.367,3.367,105.835,-78.674,7.165
0.732,43.934,3.392,3.392,105.876,-78.743,7.032
0.734,44.075,3.416,3.416,105.913,-78.805,6.911
0.737,44.200,3.433,3.433,105.948,-78.859,6.803
0.739,44.305,3.438,3.438,105.979,-78.903,6.713
0.741,44.391,3.430,3.430,106.007,-78.937,6.639
0.743,44.460,3.414,3.414,106.030,-78.963,6.580
0.745,44.512,3.397,3.397,106.050,-78.982,6.535
0.747,44.550,3.383,3.383,106.066,-78.993,6.503
0.749,44.574,3.377,3.377,106.077,-78.999,6.482
0.751,44.587,3.379,3.379,106.084,-78.999,6.471
0.753,44.593,3.386,3.386,106.085,-78.994,6.468
0.755,44.603,3.395,3.395,106.082,-78.985,6.473
0.757,44.621,3.404,3.404,106.074,-78.974,6.483
0.759,44.646,3.410,3.410,106.060,-78.959,6.498
0.761,44.677,3.412,3.412,106.040,-78.944,6.516
0.763,44.713,3.408,3.408,106.015,-78.927,6.536
0.766,44.754,3.398,3.398,105.984,-78.910,6.557
0.768,44.795,3.381,3.381,105.951,-78.894,6.576
0.770,44.833,3.356,3.356,105.919,-78.881,6.591
0.772,44.865,3.329,3.329,105.890,-78.870,6.600
0.774,44.888,3.304,3.304,105.868,-78.863,6.601
0.776,44.903,3.288,3.288,105.856,-78.862,6.592
0.778,44.924,3.287,3.287,105.857,-78.867,6.572
0.780,44.965,3.302,3.302,105.874,-78.879,6.537
0.782,45.031,3.326,3.326,105.909,-78.899,6.485
0.784,45.126,3.349,3.349,105.967,-78.929,6.416
0.786,45.255,3.362,3.362,106.050,-78.969,6.326
0.788,45.421,3.353,3.353,106.162,-79.021,6.214
0.790,45.629,3.322,3.322,106.304,-79.085,6.077
0.793,45.877,3.280,3.280,106.477,-79.161,5.916
0.795,46.158,3.239,3.239,106.676,-79.247,5.737
0.797,46.467,3.214,3.214,106.896,-79.340,5.542
0.799,46.795,3.217,3.217,107.133,-79.439,5.338
0.801,47.136,3.254,3.254,107.381,-79.541,5.127
0.803,47.483,3.323,3.323,107.637,-79.643,4.916
0.805,47.830,3.418,3.418,107.894,-79.745,4.707
0.807,48.169,3.534,3.534,108.149,-79.842,4.505
0.809,48.494,3.668,3.668,108.397,-79.934,4.316
0.811,48.799,3.811,3.811,108.633,-80.018,4.142
0.813,49.075,3.951,3.951,108.852,-80.091,3.990
0.815,49.318,4.074,4.074,109.049,-80.152,3.862
0.817,49.522,4.170,4.170,109.221,-80.199,3.764
0.820,49.688,4.226,4.226,109.369,-80.232,3.694
0.822,49.824,4.246,4.246,109.496,-80.254,3.651
0.824,49.936,4.245,4.245,109.605,-80.268,3.632
0.826,50.032,4.235,4.235,109.701,-80.276,3.635
0.828,50.121,4.232,4.232,109.787,-80.280,3.657
0.830,50.210,4.247,4.247,109.866,-80.284,3.698
0.832,50.304,4.278,4.278,109.942,-80.288,3.753
0.834,50.408,4.315,4.315,110.019,-80.297,3.822
0.836,50.522,4.349,4.349,110.100,-80.311,3.901
0.838,50.649,4.368,4.368,110.189,-80.335,3.989
0.840,50.791,4.367,4.367,110.290,-80.369,4.083
0.842,50.950,4.350,4.350,110.405,-80.418,4.181
0.844,51.128,4.328,4.328,110.538,-80.481,4.281
0.846,51.322,4.311,4.311,110.686,-80.557,4.381
0.849,51.529,4.309,4.309,110.847,-80.643,4.478
0.851,51.746,4.329,4.329,111.019,-80.737,4.573
0.853,51.970,4.371,4.371,111.199,-80.836,4.661
0.855,52.196,4.431,4.431,111.384,-80.937,4.741
0.857,52.422,4.506,4.506,111.573,-81.038,4.813
0.859,52.644,4.594,4.594,111.763,-81.137,4.872
0.861,52.860,4.689,4.689,111.952,-81.229,4.919
0.863,53.065,4.785,4.785,112.137,-81.314,4.950
0.865,53.259,4.875,4.875,112.315,-81.389,4.964
0.867,53.439,4.952,4.952,112.484,-81.450,4.959
0.869,53.606,5.008,5.008,112.643,-81.495,4.934
0.871,53.761,5.042,5.042,112.788,-81.524,4.888
0.873,53.910,5.063,5.063,112.922,-81.538,4.824
0.876,54.054,5.081,5.081,113.044,-81.539,4.746
0.878,54.197,5.107,5.107,113.154,-81.530,4.656
0.880,54.337,5.150,5.150,113.252,-81.511,4.558
0.882,54.475,5.212,5.212,113.340,-81.486,4.455
0.884,54.609,5.284,5.284,113.416,-81.455,4.349
0.886,54.737,5.358,5.358,113.483,-81.421,4.245
0.888,54.858,5.423,5.423,113.539,-81.386,4.144
