"T","Distance","Radius","FreeRadius","X","Y","Z"
0.000,0.000,0.883,0.883,244.300,205.934,196.461
0.001,0.194,1.016,1.016,244.463,205.908,196.359
0.003,0.386,1.147,1.147,244.624,205.884,196.258
0.004,0.572,1.273,1.273,244.781,205.863,196.160
0.005,0.750,1.391,1.391,244.931,205.849,196.066
0.007,0.918,1.500,1.500,245.073,205.843,195.976
0.008,1.073,1.596,1.596,245.205,205.846,195.894
0.009,1.215,1.678,1.678,245.324,205.861,195.818
0.011,1.342,1.743,1.743,245.429,205.890,195.752
0.012,1.455,1.791,1.791,245.516,205.935,195.696
0.013,1.558,1.825,1.825,245.586,205.997,195.652
0.014,1.657,1.847,1.847,245.638,206.073,195.617
0.016,1.754,1.863,1.863,245.675,206.158,195.589
0.017,1.849,1.875,1.875,245.702,206.246,195.566
0.018,1.939,1.886,1.886,245.720,206.332,195.544
0.020,2.022,1.901,1.901,245.732,206.410,195.520
0.021,2.092,1.921,1.921,245.742,206.474,195.492
0.022,2.151,1.948,1.948,245.751,206.520,195.458
0.024,2.202,1.980,1.980,245.764,206.541,195.413
0.025,2.263,2.014,2.014,245.783,206.533,195.355
0.026,2.347,2.049,2.049,245.809,206.494,195.285
0.028,2.455,2.083,2.083,245.841,206.431,195.204
0.029,2.582,2.113,2.113,245.877,206.347,195.116
0.030,2.723,2.139,2.139,245.916,206.248,195.022
0.032,2.874,2.158,2.158,245.956,206.140,194.926
0.033,3.028,2.173,2.173,245.998,206.027,194.830
0.034,3.179,2.183,2.183,246.038,205.914,194.737
0.036,3.322,2.192,2.192,246.076,205.808,194.649
0.037,3.452,2.201,2.201,246.111,205.713,194.569
0.038,3.562,2.212,2.212,246.143,205.633,194.499
0.039,3.654,2.226,2.226,246.173,205.572,194.438
0.041,3.727,2.245,2.245,246.205,205.531,194.386
0.042,3.787,2.271,2.271,246.242,205.515,194.342
0.043,3.845,2.302,2.302,246.287,205.524,194.306
0.045,3.919,2.338,2.338,246.342,205.562,194.277
0.046,4.019,2.380,2.380,246.412,205.631,194.254
0.047,4.154,2.425,2.425,246.497,205.734,194.237
0.049,4.330,2.474,2.474,246.603,205.874,194.226
0.050,4.547,2.526,2.526,246.729,206.051,194.219
0.051,4.802,2.580,2.580,246.873,206.261,194.218
0.053,5.085,2.637,2.637,247.031,206.495,194.221
0.054,5.386,2.696,2.696,247.195,206.748,194.228
0.055,5.697,2.756,2.756,247.362,207.011,194.241
0.057,6.010,2.818,2.818,247.526,207.276,194.259
0.058,6.315,2.880,2.880,247.681,207.537,194.282
0.059,6.603,2.943,2.943,247.824,207.786,194.310
0.061,6.867,3.007,3.007,247.948,208.016,194.344
0.062,7.097,3.070,3.070,248.049,208.220,194.382
0.063,7.294,3.132,3.132,248.126,208.396,194.425
0.064,7.461,3.191,3.191,248.183,208.546,194.470
0.066,7.602,3.247,3.247,248.222,208.673,194.517
0.067,7.719,3.298,3.298,248.247,208.779,194.562
0.068,7.816,3.343,3.343,248.260,208.865,194.604
0.070,7.895,3.381,3.381,248.264,208.935,194.642
0.071,7.958,3.410,3.410,248.263,208.989,194.674
0.072,8.006,3.429,3.429,248.259,209.030,194.698
0.074,8.041,3.441,3.441,248.255,209.061,194.713
0.075,8.063,3.446,3.446,248.253,209.083,194.718
0.076,8.079,3.446,3.446,248.252,209.098,194.718
0.078,8.089,3.441,3.441,248.251,209.108,194.715
0.079,8.097,3.433,3.433,248.250,209.115,194.713
0.080,8.103,3.423,3.423,248.247,209.121,194.714
0.082,8.115,3.413,3.413,248.243,209.128,194.723
0.083,8.137,3.402,3.402,248.236,209.137,194.742
0.084,8.174,3.392,3.392,248.226,209.150,194.775
0.086,8.230,3.382,3.382,248.212,209.169,194.825
0.087,8.306,3.372,3.372,248.193,209.196,194.894
0.088,8.398,3.364,3.364,248.170,209.230,194.977
0.089,8.502,3.357,3.357,248.143,209.269,195.069
0.091,8.613,3.351,3.351,248.111,209.313,195.166
0.092,8.727,3.346,3.346,248.075,209.362,195.262
0.093,8.838,3.342,3.342,248.036,209.413,195.352
0.095,8.943,3.337,3.337,247.992,209.466,195.432
0.096,9.040,3.331,3.331,247.946,209.521,195.496
0.097,9.126,3.320,3.320,247.895,209.576,195.540
0.099,9.205,3.305,3.305,247.842,209.631,195.560
0.100,9.282,3.284,3.284,247.789,209.687,195.561
0.101,9.359,3.256,3.256,247.740,209.746,195.554
0.103,9.437,3.220,3.220,247.697,209.811,195.548
0.104,9.517,3.177,3.177,247.666,209.884,195.552
0.105,9.605,3.128,3.128,247.649,209.967,195.576
0.107,9.716,3.074,3.074,247.649,210.063,195.631
0.108,9.862,3.018,3.018,247.672,210.174,195.724
0.109,10.059,2.959,2.959,247.720,210.302,195.866
0.111,10.319,2.899,2.899,247.796,210.449,196.066
0.112,10.638,2.840,2.840,247.900,210.612,196.320
0.113,11.001,2.781,2.781,248.023,210.787,196.613
0.114,11.392,2.725,2.725,248.160,210.966,196.932
0.116,11.794,2.673,2.673,248.305,211.145,197.262
0.117,12.192,2.624,2.624,248.451,211.316,197.590
0.118,12.568,2.582,2.582,248.592,211.475,197.900
0.120,12.905,2.545,2.545,248.721,211.615,198.180
0.121,13.189,2.516,2.516,248.832,211.730,198.413
0.122,13.401,2.495,2.495,248.918,211.815,198.587
0.124,13.536,2.482,2.482,248.978,211.867,198.697
0.125,13.606,2.474,2.474,249.014,211.891,198.753
0.126,13.627,2.470,2.470,249.030,211.894,198.765
0.128,13.651,2.470,2.470,249.030,211.881,198.745
0.129,13.699,2.471,2.471,249.019,211.857,198.705
0.130,13.759,2.471,2.471,248.999,211.827,198.657
0.132,13.819,2.470,2.470,248.975,211.798,198.610
0.133,13.865,2.467,2.467,248.951,211.775,198.577
0.134,13.890,2.461,2.461,248.931,211.763,198.570
0.136,13.919,2.451,2.451,248.918,211.767,198.595
0.137,13.979,2.439,2.439,248.910,211.782,198.653
0.138,14.068,2.424,2.424,248.907,211.807,198.738
0.139,14.180,2.406,2.406,248.907,211.835,198.847
0.141,14.311,2.385,2.385,248.909,211.863,198.975
0.142,14.457,2.361,2.361,248.911,211.887,199.118
0.143,14.613,2.334,2.334,248.912,211.903,199.274
0.145,14.776,2.306,2.306,248.910,211.906,199.436
0.146,14.942,2.277,2.277,248.904,211.893,199.602
0.147,15.112,2.249,2.249,248.893,211.860,199.768
0.149,15.284,2.223,2.223,248.878,211.810,199.932
0.150,15.459,2.199,2.199,248.863,211.747,200.095
0.151,15.636,2.179,2.179,248.849,211.677,200.256
0.153,15.811,2.164,2.164,248.840,211.604,200.416
0.154,15.985,2.153,2.153,248.838,211.534,200.574
0.155,16.153,2.147,2.147,248.846,211.472,200.731
0.157,16.318,2.146,2.146,248.867,211.423,200.887
0.158,16.479,2.148,2.148,248.903,211.392,201.041
0.159,16.642,2.155,2.155,248.958,211.384,201.193
0.161,16.809,2.165,2.165,249.029,211.399,201.344
0.162,16.983,2.179,2.179,249.114,211.434,201.491
0.163,17.161,2.197,2.197,249.208,211.485,201.634
0.164,17.340,2.216,2.216,249.307,211.547,201.770
0.166,17.518,2.236,2.236,249.406,211.618,201.899
0.167,17.688,2.257,2.257,249.502,211.692,202.020
0.168,17.848,2.277,2.277,249.590,211.766,202.130
0.170,17.991,2.295,2.295,249.665,211.836,202.229
0.171,18.112,2.310,2.310,249.725,211.898,202.315
0.172,18.211,2.321,2.321,249.766,211.949,202.389
0.174,18.292,2.329,2.329,249.792,211.991,202.453
0.175,18.360,2.333,2.333,249.807,212.024,202.510
0.176,18.419,2.336,2.336,249.813,212.050,202.563
0.178,18.476,2.339,2.339,249.813,212.070,202.616
0.179,18.533,2.341,2.341,249.812,212.085,202.672
0.180,18.596,2.346,2.346,249.812,212.095,202.733
0.182,18.667,2.353,2.353,249.818,212.102,202.804
0.183,18.750,2.363,2.363,249.831,212.108,202.886
0.184,18.850,2.377,2.377,249.856,212.112,202.983
0.186,18.963,2.393,2.393,249.890,212.116,203.091
0.187,19.086,2.410,2.410,249.931,212.119,203.206
0.188,19.213,2.428,2.428,249.977,212.120,203.324
0.189,19.340,2.445,2.445,250.026,212.120,203.442
0.191,19.463,2.461,2.461,250.076,212.119,203.555
0.192,19.578,2.475,2.475,250.123,212.116,203.659
0.193,19.679,2.485,2.485,250.167,212.111,203.750
0.195,19.762,2.492,2.492,250.204,212.104,203.824
0.196,19.823,2.496,2.496,250.233,212.095,203.877
0.197,19.864,2.498,2.498,250.253,212.085,203.911
0.199,19.888,2.497,2.497,250.266,212.076,203.928
0.200,19.899,2.494,2.494,250.273,212.068,203.933
0.201,19.906,2.488,2.488,250.275,212.064,203.927
0.203,19.918,2.481,2.481,250.272,212.065,203.915
0.204,19.935,2.472,2.472,250.267,212.071,203.901
0.205,19.956,2.461,2.461,250.261,212.086,203.886
0.207,19.983,2.448,2.448,250.254,212.110,203.875
0.208,20.018,2.434,2.434,250.247,212.144,203.872
0.209,20.063,2.418,2.418,250.244,212.188,203.877
0.211,20.117,2.401,2.401,250.248,212.240,203.891
0.212,20.179,2.382,2.382,250.263,212.296,203.913
0.213,20.251,2.362,2.362,250.293,212.354,203.943
0.214,20.335,2.340,2.340,250.342,212.411,203.981
0.216,20.435,2.317,2.317,250.415,212.463,204.027
0.217,20.557,2.293,2.293,250.515,212.508,204.080
0.218,20.706,2.267,2.267,250.646,212.542,204.140
0.220,20.887,2.239,2.239,250.813,212.564,204.207
0.221,21.103,2.209,2.209,251.016,212.571,204.280
0.222,21.345,2.178,2.178,251.246,212.563,204.355
0.224,21.605,2.144,2.144,251.494,212.539,204.430
0.225,21.873,2.109,2.109,251.750,212.501,204.501
0.226,22.141,2.074,2.074,252.004,212.447,204.564
0.228,22.399,2.039,2.039,252.248,212.379,204.617
0.229,22.639,2.004,2.004,252.470,212.297,204.655
0.230,22.855,1.970,1.970,252.662,212.200,204.675
0.232,23.043,1.939,1.939,252.813,212.088,204.675
0.233,23.208,1.910,1.910,252.917,211.963,204.651
0.234,23.365,1.884,1.884,252.980,211.825,204.608
0.236,23.526,1.861,1.861,253.010,211.678,204.551
0.237,23.694,1.843,1.843,253.019,211.523,204.487
0.238,23.868,1.830,1.830,253.016,211.362,204.421
0.239,24.043,1.822,1.822,253.012,211.198,204.360
0.241,24.216,1.819,1.819,253.016,211.033,204.308
0.242,24.385,1.822,1.822,253.038,210.869,204.273
0.243,24.555,1.832,1.832,253.090,210.708,204.260
0.245,24.734,1.848,1.848,253.179,210.553,204.274
0.246,24.932,1.869,1.869,253.305,210.405,204.315
0.247,25.147,1.892,1.892,253.456,210.266,204.377
0.249,25.373,1.918,1.918,253.624,210.137,204.455
0.250,25.602,1.944,1.944,253.799,210.019,204.545
0.251,25.824,1.969,1.969,253.970,209.915,204.640
0.253,26.029,1.992,1.992,254.128,209.824,204.736
0.254,26.208,2.012,2.012,254.262,209.750,204.827
0.255,26.351,2.028,2.028,254.364,209.692,204.909
0.257,26.448,2.040,2.040,254.423,209.653,204.975
0.258,26.503,2.049,2.049,254.438,209.632,205.024
0.259,26.540,2.054,2.054,254.421,209.624,205.055
0.261,26.579,2.054,2.054,254.385,209.626,205.071
0.262,26.623,2.049,2.049,254.342,209.633,205.072
0.263,26.664,2.040,2.040,254.305,209.642,205.060
0.264,26.696,2.028,2.028,254.285,209.648,205.035
0.266,26.734,2.014,2.014,254.297,209.647,204.998
0.267,26.807,2.001,2.001,254.352,209.635,204.951
0.268,26.934,1.993,1.993,254.462,209.608,204.895
0.270,27.125,1.991,1.991,254.636,209.563,204.831
0.271,27.370,1.998,1.998,254.862,209.502,204.759
0.272,27.656,2.016,2.016,255.127,209.427,204.680
0.274,27.971,2.049,2.049,255.418,209.341,204.595
0.275,28.302,2.094,2.094,255.721,209.246,204.504
0.276,28.635,2.148,2.148,256.023,209.145,204.407
0.278,28.957,2.209,2.209,256.311,209.040,204.306
0.279,29.257,2.271,2.271,256.571,208.934,204.200
0.280,29.523,2.332,2.332,256.789,208.829,204.091
0.282,29.747,2.389,2.389,256.955,208.729,203.979
0.283,29.935,2.439,2.439,257.074,208.636,203.867
0.284,30.094,2.478,2.478,257.158,208.556,203.758
0.286,30.229,2.511,2.511,257.220,208.493,203.656
0.287,30.342,2.540,2.540,257.271,208.452,203.564
0.288,30.437,2.571,2.571,257.324,208.437,203.486
0.289,30.529,2.606,2.606,257.391,208.453,203.426
0.291,30.642,2.650,2.650,257.484,208.505,203.386
0.292,30.803,2.706,2.706,257.615,208.597,203.370
0.293,31.029,2.779,2.779,257.796,208.733,203.381
0.295,31.321,2.868,2.868,258.025,208.909,203.419
0.296,31.664,2.968,2.968,258.293,209.113,203.479
0.297,32.041,3.075,3.075,258.589,209.336,203.555
0.299,32.437,3.182,3.182,258.900,209.564,203.644
0.300,32.836,3.284,3.284,259.216,209.787,203.741
0.301,33.221,3.376,3.376,259.525,209.993,203.840
0.303,33.576,3.453,3.453,259.817,210.171,203.937
0.304,33.887,3.509,3.509,260.081,210.310,204.028
0.305,34.140,3.544,3.544,260.304,210.397,204.107
0.307,34.333,3.562,3.562,260.483,210.429,204.172
0.308,34.484,3.567,3.567,260.625,210.413,204.222
0.309,34.613,3.561,3.561,260.735,210.357,204.259
0.311,34.738,3.548,3.548,260.823,210.271,204.282
0.312,34.869,3.530,3.530,260.896,210.164,204.292
0.313,35.006,3.512,3.512,260.961,210.042,204.290
0.314,35.148,3.496,3.496,261.026,209.917,204.275
0.316,35.292,3.482,3.482,261.098,209.795,204.248
0.317,35.437,3.470,3.470,261.185,209.686,204.210
0.318,35.585,3.459,3.459,261.292,209.597,204.161
0.320,35.739,3.449,3.449,261.417,209.528,204.102
0.321,35.899,3.439,3.439,261.554,209.477,204.035
0.322,36.065,3.429,3.429,261.697,209.444,203.961
0.324,36.232,3.419,3.419,261.844,209.426,203.881
0.325,36.398,3.408,3.408,261.987,209.423,203.798
0.326,36.559,3.397,3.397,262.123,209.434,203.712
0.328,36.712,3.387,3.387,262.246,209.456,203.625
0.329,36.853,3.377,3.377,262.352,209.489,203.538
0.330,36.980,3.368,3.368,262.435,209.532,203.452
0.332,37.095,3.361,3.361,262.498,209.581,203.368
0.333,37.204,3.355,3.355,262.544,209.635,203.286
0.334,37.307,3.352,3.352,262.578,209.689,203.205
0.336,37.405,3.351,3.351,262.602,209.742,203.126
0.337,37.499,3.352,3.351,262.623,209.790,203.047
0.338,37.589,3.352,3.352,262.642,209.830,202.970
0.339,37.674,3.352,3.352,262.665,209.859,202.893
0.341,37.758,3.351,3.351,262.696,209.875,202.817
0.342,37.845,3.348,3.348,262.739,209.874,202.740
0.343,37.941,3.342,3.342,262.794,209.856,202.664
0.345,38.047,3.332,3.333,262.859,209.825,202.587
0.346,38.164,3.320,3.321,262.934,209.781,202.508
0.347,38.291,3.307,3.307,263.016,209.728,202.427
0.349,38.425,3.293,3.293,263.103,209.669,202.344
0.350,38.566,3.279,3.280,263.193,209.605,202.256
0.351,38.710,3.268,3.268,263.284,209.540,202.165
0.353,38.857,3.259,3.259,263.374,209.476,202.068
0.354,39.005,3.254,3.254,263.462,209.415,201.966
0.355,39.152,3.253,3.252,263.546,209.360,201.858
0.357,39.299,3.254,3.253,263.623,209.308,201.745
0.358,39.446,3.255,3.254,263.695,209.259,201.626
0.359,39.591,3.255,3.254,263.758,209.212,201.504
0.361,39.736,3.251,3.250,263.813,209.166,201.378
0.362,39.880,3.242,3.241,263.857,209.119,201.250
0.363,40.023,3.226,3.226,263.891,209.070,201.119
0.364,40.167,3.201,3.202,263.912,209.019,200.987
0.366,40.311,3.168,3.170,263.920,208.963,200.854
0.367,40.458,3.127,3.131,263.914,208.903,200.721
0.368,40.604,3.083,3.087,263.897,208.841,200.589
0.370,40.748,3.035,3.040,263.873,208.782,200.460
0.371,40.885,2.987,2.992,263.845,208.729,200.337
0.372,41.013,2.940,2.943,263.817,208.687,200.219
0.374,41.128,2.895,2.896,263.792,208.659,200.110
0.375,41.230,2.856,2.851,263.775,208.649,200.011
0.376,41.319,2.821,2.811,263.768,208.661,199.923
0.378,41.403,2.789,2.774,263.776,208.700,199.848
0.379,41.498,2.759,2.741,263.802,208.769,199.788
0.380,41.612,2.732,2.712,263.845,208.864,199.743
0.382,41.744,2.704,2.688,263.901,208.980,199.712
0.383,41.891,2.677,2.668,263.968,209.110,199.693
0.384,42.047,2.649,2.654,264.042,209.246,199.687
0.386,42.204,2.619,2.644,264.119,209.384,199.691
0.387,42.357,2.588,2.636,264.196,209.515,199.705
0.388,42.499,2.556,2.629,264.270,209.634,199.727
0.389,42.623,2.523,2.620,264.337,209.734,199.758
0.391,42.724,2.489,2.608,264.395,209.808,199.795
0.392,42.802,2.454,2.589,264.440,209.856,199.835
0.393,42.858,2.419,2.563,264.474,209.884,199.871
0.395,42.894,2.384,2.527,264.495,209.900,199.895
0.396,42.908,2.349,2.481,264.505,209.910,199.899
0.397,42.935,2.314,2.429,264.501,209.922,199.876
0.399,42.998,2.281,2.373,264.486,209.944,199.819
0.400,43.108,2.248,2.315,264.458,209.981,199.719
0.401,43.275,2.217,2.259,264.418,210.041,199.569
0.403,43.507,2.188,2.208,264.365,210.132,199.362
0.404,43.808,2.162,2.163,264.301,210.256,199.095
0.405,44.166,2.138,2.127,264.227,210.408,198.780
0.407,44.564,2.117,2.100,264.147,210.581,198.430
0.408,44.986,2.098,2.081,264.065,210.767,198.059
0.409,45.418,2.083,2.068,263.984,210.958,197.681
0.411,45.843,2.070,2.060,263.905,211.148,197.309
0.412,46.245,2.061,2.056,263.834,211.328,196.957
0.413,46.609,2.055,2.056,263.772,211.492,196.639
0.414,46.918,2.051,2.057,263.724,211.632,196.367
0.416,47.160,2.051,2.059,263.691,211.742,196.154
0.417,47.338,2.054,2.063,263.673,211.823,195.997
0.418,47.460,2.058,2.067,263.666,211.878,195.888
0.420,47.534,2.065,2.072,263.669,211.910,195.821
0.421,47.571,2.073,2.078,263.680,211.923,195.788
0.422,47.588,2.082,2.085,263.696,211.920,195.781
0.424,47.616,2.092,2.092,263.714,211.905,195.795
0.425,47.656,2.102,2.101,263.732,211.880,195.820
0.426,47.702,2.111,2.109,263.748,211.849,195.850
0.428,47.747,2.119,2.117,263.760,211.815,195.879
0.429,47.788,2.126,2.124,263.767,211.782,195.901
0.430,47.822,2.130,2.128,263.769,211.753,195.918
0.432,47.847,2.131,2.130,263.768,211.730,195.929
0.433,47.862,2.129,2.128,263.764,211.716,195.932
0.434,47.869,2.121,2.121,263.757,211.715,195.928
0.436,47.889,2.109,2.110,263.750,211.729,195.917
0.437,47.929,2.093,2.093,263.742,211.762,195.896
0.438,47.990,2.072,2.073,263.734,211.816,195.868
0.439,48.078,2.048,2.049,263.727,211.895,195.829
0.441,48.191,2.023,2.023,263.722,211.998,195.782
0.442,48.326,1.995,1.995,263.718,212.121,195.728
0.443,48.477,1.966,1.966,263.716,212.260,195.668
0.445,48.640,1.938,1.938,263.716,212.410,195.605
0.446,48.809,1.910,1.909,263.718,212.566,195.540
0.447,48.981,1.883,1.882,263.723,212.725,195.475
0.449,49.150,1.858,1.857,263.731,212.882,195.412
0.450,49.311,1.835,1.835,263.741,213.031,195.353
0.451,49.459,1.816,1.816,263.754,213.169,195.299
0.453,49.592,1.801,1.801,263.771,213.292,195.253
0.454,49.709,1.790,1.790,263.789,213.400,195.212
0.455,49.812,1.785,1.785,263.810,213.494,195.178
0.457,49.900,1.785,1.785,263.831,213.576,195.149
0.458,49.977,1.789,1.789,263.851,213.645,195.125
0.459,50.041,1.796,1.796,263.871,213.703,195.105
0.461,50.095,1.805,1.805,263.890,213.751,195.089
0.462,50.139,1.814,1.814,263.905,213.790,195.077
0.463,50.173,1.824,1.824,263.918,213.820,195.066
0.464,50.198,1.832,1.832,263.926,213.843,195.058
0.466,50.217,1.838,1.838,263.930,213.860,195.052
0.467,50.232,1.842,1.842,263.932,213.874,195.047
0.468,50.245,1.843,1.843,263.931,213.887,195.044
0.470,50.260,1.843,1.843,263.930,213.901,195.042
0.471,50.277,1.840,1.840,263.927,213.918,195.042
0.472,50.301,1.835,1.835,263.925,213.942,195.043
0.474,50.332,1.829,1.829,263.924,213.973,195.045
0.475,50.374,1.821,1.821,263.925,214.014,195.048
0.476,50.428,1.811,1.811,263.928,214.068,195.052
0.478,50.495,1.800,1.800,263.935,214.135,195.057
0.479,50.574,1.787,1.788,263.946,214.213,195.063
0.480,50.663,1.774,1.774,263.962,214.301,195.070
0.482,50.762,1.760,1.760,263.985,214.397,195.078
0.483,50.870,1.745,1.745,264.014,214.500,195.087
0.484,50.985,1.730,1.730,264.050,214.608,195.098
0.486,51.106,1.714,1.714,264.095,214.721,195.110
0.487,51.234,1.699,1.699,264.150,214.835,195.124
0.488,51.368,1.684,1.684,264.215,214.951,195.139
0.489,51.507,1.670,1.670,264.289,215.067,195.156
0.491,51.650,1.658,1.658,264.371,215.183,195.176
0.492,51.796,1.647,1.647,264.458,215.298,195.200
0.493,51.943,1.639,1.639,264.546,215.412,195.229
0.495,52.091,1.635,1.635,264.634,215.525,195.264
0.496,52.237,1.633,1.633,264.719,215.638,195.306
0.497,52.382,1.635,1.635,264.797,215.748,195.356
0.499,52.524,1.639,1.639,264.867,215.858,195.415
0.500,52.665,1.646,1.646,264.925,215.965,195.483
0.501,52.804,1.654,1.655,264.970,216.071,195.562
0.503,52.942,1.664,1.664,265.002,216.173,195.649
0.504,53.077,1.675,1.675,265.022,216.272,195.738
0.505,53.207,1.687,1.687,265.032,216.366,195.828
0.507,53.330,1.698,1.698,265.033,216.454,195.913
0.508,53.442,1.710,1.709,265.026,216.536,195.990
0.509,53.543,1.721,1.720,265.012,216.611,196.056
0.511,53.628,1.731,1.730,264.994,216.677,196.106
0.512,53.696,1.740,1.740,264.971,216.734,196.136
0.513,53.750,1.748,1.747,264.946,216.781,196.144
0.514,53.798,1.754,1.754,264.922,216.821,196.131
0.516,53.848,1.758,1.759,264.904,216.857,196.101
0.517,53.904,1.761,1.761,264.898,216.892,196.058
0.518,53.969,1.761,1.763,264.907,216.931,196.006
0.520,54.048,1.761,1.762,264.938,216.978,195.951
0.521,54.146,1.759,1.761,264.994,217.035,195.894
0.522,54.271,1.756,1.758,265.081,217.108,195.842
0.524,54.429,1.753,1.754,265.203,217.198,195.799
0.525,54.630,1.749,1.749,265.366,217.311,195.767
0.526,54.872,1.745,1.744,265.567,217.446,195.749
0.528,55.146,1.741,1.737,265.795,217.596,195.744
0.529,55.438,1.734,1.729,266.040,217.756,195.750
0.530,55.739,1.725,1.719,266.292,217.920,195.766
0.532,56.036,1.713,1.705,266.539,218.082,195.790
0.533,56.316,1.695,1.689,266.771,218.236,195.822
0.534,56.569,1.672,1.668,266.978,218.377,195.860
0.536,56.782,1.643,1.644,267.148,218.499,195.902
