"T","Distance","Radius","FreeRadius","X","Y","Z"
0.000,0.000,0.883,0.883,244.300,205.934,196.461
0.002,0.176,1.001,1.001,244.448,205.910,196.369
0.003,0.350,1.118,1.118,244.594,205.888,196.277
0.005,0.519,1.230,1.230,244.737,205.869,196.188
0.007,0.683,1.338,1.338,244.875,205.854,196.101
0.008,0.840,1.438,1.438,245.007,205.845,196.018
0.010,0.987,1.530,1.530,245.132,205.843,195.940
0.012,1.123,1.611,1.611,245.247,205.850,195.867
0.013,1.247,1.681,1.681,245.351,205.867,195.802
0.015,1.360,1.742,1.742,245.443,205.896,195.743
0.017,1.461,1.792,1.792,245.521,205.938,195.694
0.018,1.554,1.833,1.833,245.583,205.994,195.653
0.020,1.644,1.864,1.864,245.632,206.062,195.621
0.022,1.732,1.886,1.886,245.668,206.138,195.595
0.023,1.819,1.900,1.900,245.694,206.217,195.573
0.025,1.902,1.910,1.910,245.713,206.296,195.553
0.026,1.981,1.916,1.916,245.726,206.371,195.533
0.028,2.051,1.922,1.922,245.736,206.437,195.510
0.030,2.111,1.930,1.930,245.744,206.490,195.483
0.031,2.162,1.942,1.942,245.754,206.526,195.449
0.033,2.208,1.958,1.958,245.766,206.542,195.407
0.035,2.264,1.980,1.980,245.784,206.533,195.355
0.036,2.340,2.008,2.008,245.807,206.499,195.291
0.038,2.435,2.043,2.043,245.835,206.444,195.219
0.040,2.546,2.086,2.086,245.867,206.371,195.141
0.041,2.671,2.136,2.136,245.901,206.286,195.057
0.043,2.804,2.192,2.192,245.938,206.190,194.971
0.045,2.943,2.247,2.247,245.975,206.090,194.884
0.046,3.082,2.298,2.298,246.012,205.987,194.797
0.048,3.217,2.337,2.337,246.048,205.887,194.714
0.050,3.345,2.361,2.361,246.082,205.792,194.636
0.051,3.460,2.363,2.363,246.113,205.707,194.564
0.053,3.560,2.346,2.346,246.142,205.635,194.501
0.055,3.644,2.317,2.317,246.169,205.578,194.445
0.056,3.713,2.285,2.285,246.198,205.538,194.396
0.058,3.770,2.257,2.257,246.230,205.517,194.355
0.060,3.822,2.242,2.242,246.267,205.516,194.319
0.061,3.880,2.247,2.247,246.313,205.539,194.290
0.063,3.957,2.275,2.275,246.368,205.585,194.266
0.065,4.058,2.321,2.321,246.436,205.659,194.248
0.066,4.190,2.378,2.378,246.518,205.761,194.234
0.068,4.355,2.442,2.442,246.617,205.893,194.225
0.070,4.555,2.504,2.504,246.733,206.056,194.220
0.071,4.785,2.561,2.561,246.863,206.245,194.218
0.073,5.039,2.610,2.610,247.004,206.456,194.221
0.075,5.309,2.652,2.652,247.152,206.682,194.227
0.076,5.589,2.693,2.693,247.303,206.918,194.238
0.078,5.873,2.735,2.735,247.454,207.158,194.252
0.079,6.153,2.782,2.782,247.599,207.397,194.271
0.081,6.424,2.837,2.837,247.735,207.630,194.293
0.083,6.678,2.902,2.902,247.859,207.850,194.320
0.084,6.910,2.974,2.974,247.967,208.054,194.350
0.086,7.114,3.048,3.048,248.055,208.234,194.385
0.088,7.291,3.122,3.122,248.124,208.392,194.422
0.089,7.442,3.190,3.190,248.176,208.529,194.462
0.091,7.572,3.250,3.250,248.213,208.647,194.502
0.093,7.683,3.298,3.298,248.238,208.747,194.543
0.094,7.776,3.336,3.336,248.253,208.830,194.582
0.096,7.855,3.365,3.365,248.260,208.900,194.618
0.098,7.920,3.387,3.387,248.262,208.956,194.651
0.099,7.973,3.402,3.402,248.260,209.001,194.679
0.101,8.016,3.414,3.414,248.257,209.037,194.701
0.103,8.048,3.423,3.423,248.256,209.065,194.716
0.104,8.071,3.429,3.429,248.256,209.087,194.725
0.106,8.088,3.433,3.433,248.257,209.103,194.730
0.108,8.100,3.435,3.435,248.258,209.115,194.732
0.109,8.109,3.436,3.436,248.259,209.124,194.733
0.111,8.116,3.435,3.435,248.258,209.131,194.735
0.113,8.125,3.434,3.434,248.255,209.136,194.741
0.114,8.138,3.431,3.431,248.250,209.142,194.752
0.116,8.159,3.428,3.428,248.240,209.149,194.769
0.118,8.190,3.425,3.425,248.226,209.159,194.795
0.119,8.234,3.422,3.422,248.207,209.171,194.832
0.121,8.290,3.419,3.419,248.182,209.188,194.880
0.123,8.359,3.417,3.417,248.153,209.210,194.938
0.124,8.437,3.414,3.414,248.121,209.236,195.004
0.126,8.523,3.411,3.411,248.086,209.268,195.076
0.127,8.616,3.405,3.405,248.050,209.306,195.153
0.129,8.714,3.395,3.395,248.013,209.350,195.233
0.131,8.816,3.382,3.382,247.977,209.400,195.315
0.132,8.921,3.363,3.363,247.944,209.456,195.396
0.134,9.028,3.339,3.339,247.912,209.520,195.476
0.136,9.136,3.311,3.311,247.885,209.592,195.552
0.137,9.245,3.280,3.280,247.862,209.670,195.623
0.139,9.353,3.246,3.246,247.844,209.754,195.689
0.141,9.460,3.212,3.212,247.828,209.842,195.748
0.142,9.563,3.176,3.176,247.815,209.930,195.801
0.144,9.662,3.141,3.141,247.804,210.017,195.846
0.146,9.754,3.108,3.108,247.794,210.100,195.884
0.147,9.837,3.077,3.077,247.784,210.178,195.913
0.149,9.910,3.049,3.049,247.774,210.248,195.933
0.151,9.972,3.026,3.026,247.763,210.307,195.943
0.152,10.021,3.008,3.008,247.750,210.355,195.943
0.154,10.060,2.995,2.995,247.735,210.388,195.932
0.156,10.093,2.985,2.985,247.717,210.410,195.915
0.157,10.125,2.977,2.977,247.696,210.424,195.895
0.159,10.155,2.969,2.969,247.674,210.435,195.877
0.161,10.184,2.959,2.959,247.650,210.445,195.865
0.162,10.213,2.946,2.946,247.624,210.459,195.865
0.164,10.251,2.928,2.928,247.597,210.480,195.880
0.166,10.306,2.904,2.904,247.569,210.513,195.915
0.167,10.388,2.875,2.875,247.539,210.561,195.975
0.169,10.503,2.838,2.838,247.509,210.628,196.063
0.171,10.657,2.793,2.793,247.478,210.717,196.185
0.172,10.848,2.740,2.740,247.447,210.829,196.336
0.174,11.068,2.678,2.678,247.413,210.961,196.509
0.175,11.309,2.610,2.610,247.377,211.109,196.696
0.177,11.564,2.538,2.538,247.337,211.270,196.889
0.179,11.824,2.464,2.464,247.293,211.443,197.078
0.180,12.082,2.392,2.392,247.244,211.623,197.257
0.182,12.333,2.322,2.322,247.188,211.809,197.416
0.184,12.570,2.258,2.258,247.126,211.996,197.548
0.185,12.792,2.199,2.199,247.056,212.183,197.644
0.187,12.998,2.147,2.147,246.978,212.366,197.696
0.189,13.195,2.103,2.103,246.892,212.543,197.703
0.190,13.390,2.066,2.066,246.800,212.713,197.670
0.192,13.588,2.040,2.040,246.706,212.873,197.603
0.194,13.787,2.022,2.022,246.612,213.022,197.510
0.195,13.987,2.011,2.011,246.521,213.158,197.396
0.197,14.184,2.005,2.005,246.435,213.281,197.268
0.199,14.373,2.000,2.000,246.358,213.387,197.133
0.200,14.549,1.994,1.994,246.291,213.476,196.996
0.202,14.706,1.984,1.984,246.237,213.546,196.865
0.204,14.840,1.969,1.969,246.200,213.595,196.746
0.205,14.949,1.949,1.949,246.180,213.623,196.643
0.207,15.037,1.928,1.928,246.174,213.633,196.556
0.209,15.110,1.908,1.908,246.178,213.630,196.484
0.210,15.172,1.893,1.893,246.187,213.616,196.423
0.212,15.226,1.883,1.883,246.197,213.597,196.375
0.214,15.271,1.882,1.882,246.205,213.575,196.335
0.215,15.308,1.887,1.887,246.207,213.554,196.305
0.217,15.338,1.894,1.894,246.198,213.539,196.280
0.219,15.369,1.900,1.900,246.174,213.534,196.262
0.220,15.415,1.901,1.901,246.132,213.541,196.247
0.222,15.485,1.893,1.893,246.067,213.565,196.234
0.224,15.578,1.873,1.873,245.983,213.605,196.221
0.225,15.693,1.844,1.844,245.883,213.659,196.207
0.227,15.823,1.808,1.808,245.772,213.725,196.189
0.228,15.967,1.771,1.771,245.652,213.801,196.165
0.230,16.121,1.737,1.737,245.529,213.887,196.134
0.232,16.281,1.709,1.709,245.405,213.980,196.093
0.233,16.444,1.692,1.692,245.286,214.079,196.039
0.235,16.610,1.685,1.685,245.174,214.181,195.972
0.237,16.777,1.685,1.685,245.074,214.286,195.890
0.238,16.945,1.691,1.691,244.990,214.391,195.789
0.240,17.117,1.699,1.699,244.920,214.496,195.673
0.242,17.293,1.706,1.706,244.864,214.603,195.544
0.243,17.473,1.711,1.711,244.817,214.710,195.408
0.245,17.656,1.711,1.711,244.777,214.820,195.267
0.247,17.839,1.709,1.709,244.742,214.932,195.126
0.248,18.022,1.704,1.704,244.710,215.047,194.989
0.250,18.201,1.696,1.696,244.677,215.166,194.859
0.252,18.375,1.688,1.688,244.640,215.289,194.740
0.253,18.545,1.679,1.679,244.598,215.417,194.636
0.255,18.710,1.672,1.672,244.548,215.550,194.552
0.257,18.873,1.668,1.668,244.489,215.687,194.488
0.258,19.034,1.670,1.670,244.423,215.826,194.441
0.260,19.194,1.682,1.682,244.352,215.966,194.409
0.262,19.351,1.705,1.705,244.278,216.103,194.390
0.263,19.503,1.743,1.743,244.203,216.235,194.380
0.265,19.649,1.795,1.795,244.128,216.360,194.378
0.267,19.785,1.856,1.856,244.056,216.476,194.381
0.268,19.910,1.919,1.919,243.988,216.580,194.385
0.270,20.018,1.980,1.980,243.927,216.670,194.389
0.272,20.109,2.032,2.032,243.874,216.743,194.390
0.273,20.180,2.071,2.071,243.830,216.799,194.387
0.275,20.234,2.094,2.094,243.795,216.840,194.379
0.276,20.275,2.103,2.103,243.768,216.867,194.367
0.278,20.306,2.104,2.104,243.747,216.884,194.351
0.280,20.331,2.099,2.099,243.731,216.892,194.333
0.281,20.354,2.092,2.092,243.720,216.894,194.313
0.283,20.377,2.089,2.089,243.712,216.892,194.292
0.285,20.400,2.090,2.090,243.707,216.889,194.269
0.286,20.423,2.095,2.095,243.703,216.886,194.247
0.288,20.446,2.104,2.104,243.699,216.887,194.224
0.290,20.469,2.115,2.115,243.695,216.893,194.202
0.291,20.493,2.127,2.127,243.690,216.904,194.182
0.293,20.517,2.140,2.140,243.685,216.918,194.163
0.295,20.541,2.152,2.152,243.680,216.936,194.147
0.296,20.565,2.163,2.163,243.675,216.955,194.133
0.298,20.589,2.171,2.171,243.670,216.975,194.123
0.300,20.610,2.175,2.175,243.666,216.995,194.116
0.301,20.630,2.175,2.175,243.663,217.015,194.113
0.303,20.648,2.170,2.170,243.661,217.033,194.116
0.305,20.665,2.159,2.159,243.660,217.048,194.123
0.306,20.682,2.144,2.144,243.661,217.059,194.136
0.308,20.702,2.128,2.128,243.663,217.068,194.152
0.310,20.722,2.113,2.113,243.668,217.076,194.171
0.311,20.743,2.102,2.102,243.676,217.085,194.188
0.313,20.763,2.097,2.097,243.687,217.096,194.201
0.315,20.786,2.101,2.101,243.701,217.111,194.209
0.316,20.813,2.110,2.110,243.720,217.132,194.208
0.318,20.852,2.122,2.122,243.742,217.160,194.196
0.320,20.904,2.131,2.131,243.769,217.198,194.170
0.321,20.976,2.134,2.134,243.802,217.246,194.128
0.323,21.069,2.127,2.127,243.840,217.307,194.068
0.325,21.185,2.106,2.106,243.882,217.380,193.990
0.326,21.317,2.074,2.074,243.929,217.463,193.897
0.328,21.464,2.036,2.036,243.978,217.554,193.794
0.329,21.619,1.997,1.997,244.028,217.652,193.684
0.331,21.779,1.961,1.961,244.078,217.755,193.571
0.333,21.940,1.933,1.933,244.127,217.859,193.459
0.334,22.098,1.918,1.918,244.172,217.964,193.351
0.336,22.247,1.917,1.917,244.214,218.067,193.251
0.338,22.385,1.923,1.923,244.250,218.167,193.163
0.339,22.507,1.936,1.936,244.280,218.260,193.090
0.341,22.613,1.949,1.949,244.302,218.347,193.035
0.343,22.703,1.961,1.961,244.318,218.427,192.995
0.344,22.782,1.967,1.967,244.330,218.500,192.968
0.346,22.850,1.967,1.967,244.338,218.566,192.952
0.348,22.911,1.961,1.961,244.344,218.625,192.943
0.349,22.964,1.951,1.951,244.349,218.678,192.941
0.351,23.010,1.939,1.939,244.354,218.724,192.942
0.353,23.051,1.926,1.926,244.361,218.764,192.944
0.354,23.086,1.913,1.913,244.371,218.798,192.944
0.356,23.117,1.902,1.902,244.386,218.825,192.941
0.358,23.147,1.892,1.892,244.406,218.847,192.932
0.359,23.180,1.884,1.884,244.430,218.863,192.918
0.361,23.217,1.878,1.878,244.459,218.875,192.898
0.363,23.259,1.875,1.875,244.492,218.885,192.874
0.364,23.305,1.876,1.876,244.527,218.891,192.846
0.366,23.354,1.878,1.878,244.565,218.897,192.814
0.368,23.407,1.882,1.882,244.605,218.902,192.780
0.369,23.463,1.885,1.885,244.646,218.907,192.742
0.371,23.520,1.885,1.885,244.687,218.915,192.703
0.373,23.578,1.882,1.882,244.728,218.924,192.663
0.374,23.638,1.873,1.873,244.768,218.937,192.621
0.376,23.699,1.858,1.858,244.807,218.954,192.578
0.377,23.763,1.840,1.840,244.846,218.974,192.532
0.379,23.830,1.820,1.820,244.885,219.000,192.482
0.381,23.903,1.802,1.802,244.924,219.030,192.428
0.382,23.982,1.789,1.789,244.963,219.065,192.369
0.384,24.069,1.782,1.782,245.002,219.106,192.303
0.386,24.164,1.783,1.783,245.042,219.152,192.231
0.387,24.269,1.790,1.790,245.084,219.204,192.149
0.389,24.385,1.801,1.800,245.126,219.263,192.059
0.391,24.513,1.813,1.812,245.170,219.329,191.959
0.392,24.653,1.823,1.822,245.214,219.402,191.848
0.394,24.805,1.828,1.828,245.257,219.484,191.727
0.396,24.970,1.828,1.829,245.295,219.575,191.595
0.397,25.147,1.825,1.827,245.327,219.677,191.454
0.399,25.337,1.821,1.825,245.349,219.790,191.303
0.401,25.542,1.822,1.825,245.361,219.916,191.142
0.402,25.762,1.829,1.832,245.359,220.055,190.971
0.404,25.999,1.847,1.847,245.341,220.209,190.791
0.406,26.256,1.877,1.873,245.305,220.379,190.602
0.407,26.533,1.923,1.914,245.249,220.566,190.404
0.409,26.831,1.983,1.970,245.173,220.767,190.199
0.411,27.144,2.060,2.046,245.079,220.980,189.989
0.412,27.465,2.153,2.142,244.972,221.197,189.779
0.414,27.786,2.264,2.262,244.856,221.414,189.573
0.416,28.101,2.391,2.406,244.734,221.626,189.374
0.417,28.402,2.528,2.564,244.610,221.827,189.187
0.419,28.683,2.664,2.723,244.489,222.012,189.014
0.421,28.936,2.787,2.871,244.374,222.175,188.860
0.422,29.153,2.888,2.993,244.268,222.312,188.728
0.424,29.328,2.957,3.077,244.177,222.417,188.622
0.425,29.456,2.983,3.110,244.101,222.487,188.546
0.427,29.542,2.973,3.099,244.044,222.526,188.495
0.429,29.594,2.939,3.059,244.003,222.540,188.467
0.430,29.620,2.893,3.002,243.979,222.536,188.458
0.432,29.639,2.848,2.944,243.972,222.518,188.464
0.434,29.672,2.816,2.899,243.982,222.494,188.483
0.435,29.718,2.809,2.881,244.009,222.469,188.511
0.437,29.776,2.826,2.889,244.052,222.449,188.544
0.439,29.846,2.861,2.918,244.112,222.439,188.579
0.440,29.930,2.905,2.960,244.189,222.446,188.613
0.442,30.032,2.950,3.008,244.281,222.475,188.642
0.444,30.151,2.990,3.054,244.387,222.524,188.666
0.445,30.285,3.016,3.091,244.503,222.589,188.686
0.447,30.429,3.028,3.117,244.623,222.666,188.704
0.449,30.579,3.028,3.133,244.746,222.751,188.721
0.450,30.729,3.022,3.140,244.865,222.840,188.737
0.452,30.873,3.012,3.138,244.979,222.928,188.754
0.454,31.007,3.003,3.128,245.082,223.011,188.773
0.455,31.126,2.998,3.113,245.172,223.085,188.794
0.457,31.223,3.000,3.093,245.243,223.146,188.820
0.459,31.296,3.005,3.072,245.293,223.191,188.851
0.460,31.349,3.013,3.052,245.322,223.219,188.885
0.462,31.388,3.021,3.038,245.335,223.233,188.919
0.464,31.419,3.029,3.033,245.336,223.237,188.949
0.465,31.443,3.033,3.038,245.331,223.234,188.972
0.467,31.459,3.035,3.056,245.323,223.228,188.985
0.469,31.468,3.033,3.081,245.317,223.221,188.984
0.470,31.487,3.031,3.111,245.319,223.218,188.965
0.472,31.528,3.028,3.142,245.332,223.222,188.926
0.474,31.600,3.026,3.169,245.361,223.235,188.862
0.475,31.708,3.027,3.190,245.411,223.262,188.770
0.477,31.854,3.031,3.202,245.483,223.303,188.649
0.478,32.033,3.040,3.209,245.574,223.357,188.506
0.480,32.238,3.057,3.216,245.680,223.423,188.343
0.482,32.463,3.082,3.227,245.799,223.498,188.167
0.483,32.702,3.118,3.247,245.926,223.580,187.981
0.485,32.950,3.166,3.279,246.059,223.668,187.792
0.487,33.199,3.226,3.327,246.193,223.760,187.603
0.488,33.444,3.297,3.386,246.326,223.853,187.420
0.490,33.678,3.373,3.454,246.453,223.947,187.247
0.492,33.896,3.451,3.526,246.572,224.040,187.090
0.493,34.093,3.527,3.599,246.680,224.129,186.951
0.495,34.271,3.598,3.668,246.777,224.217,186.831
0.497,34.431,3.661,3.731,246.865,224.302,186.728
0.498,34.576,3.716,3.788,246.944,224.386,186.640
0.500,34.709,3.764,3.838,247.017,224.470,186.567
0.502,34.831,3.806,3.883,247.082,224.555,186.508
0.503,34.946,3.842,3.923,247.143,224.640,186.460
0.505,35.057,3.874,3.957,247.199,224.727,186.423
0.507,35.165,3.902,3.987,247.253,224.817,186.395
0.508,35.272,3.927,4.012,247.304,224.910,186.376
0.510,35.382,3.949,4.032,247.353,225.007,186.364
0.512,35.491,3.968,4.047,247.401,225.105,186.358
0.513,35.599,3.985,4.056,247.446,225.203,186.357
0.515,35.703,4.000,4.059,247.488,225.298,186.361
0.517,35.800,4.012,4.056,247.525,225.387,186.370
0.518,35.889,4.022,4.049,247.556,225.470,186.382
0.520,35.966,4.029,4.040,247.582,225.542,186.396
0.522,36.031,4.031,4.030,247.599,225.601,186.412
0.523,36.080,4.028,4.022,247.609,225.646,186.430
0.525,36.113,4.020,4.017,247.609,225.674,186.448
0.526,36.135,4.005,4.018,247.600,225.682,186.466
0.528,36.160,3.985,4.023,247.582,225.674,186.482
0.530,36.193,3.963,4.031,247.560,225.655,186.497
0.531,36.228,3.942,4.039,247.536,225.631,186.508
0.533,36.260,3.925,4.046,247.516,225.608,186.515
0.535,36.281,3.913,4.048,247.501,225.592,186.517
0.536,36.288,3.910,4.044,247.497,225.589,186.512
0.538,36.310,3.915,4.034,247.506,225.605,186.499
0.540,36.362,3.925,4.020,247.532,225.645,186.478
0.541,36.452,3.938,4.004,247.578,225.715,186.448
0.543,36.586,3.951,3.986,247.649,225.822,186.407
0.545,36.765,3.961,3.970,247.743,225.964,186.355
0.546,36.979,3.965,3.956,247.857,226.136,186.296
0.548,37.220,3.963,3.946,247.985,226.330,186.231
0.550,37.478,3.958,3.939,248.122,226.538,186.162
0.551,37.744,3.950,3.934,248.263,226.752,186.092
0.553,38.009,3.941,3.931,248.403,226.965,186.023
0.555,38.262,3.934,3.931,248.537,227.170,185.958
0.556,38.496,3.930,3.932,248.661,227.359,185.898
0.558,38.700,3.929,3.934,248.768,227.525,185.847
0.560,38.865,3.932,3.937,248.854,227.660,185.805
0.561,38.986,3.938,3.942,248.917,227.759,185.775
0.563,39.067,3.946,3.948,248.957,227.827,185.756
0.565,39.115,3.955,3.956,248.978,227.869,185.747
0.566,39.135,3.965,3.965,248.982,227.889,185.746
0.568,39.148,3.976,3.975,248.972,227.892,185.753
0.570,39.174,3.986,3.984,248.951,227.883,185.767
0.571,39.212,3.995,3.993,248.922,227.868,185.786
0.573,39.257,4.001,4.000,248.887,227.851,185.809
0.575,39.306,4.004,4.004,248.849,227.837,185.836
0.576,39.354,4.004,4.004,248.811,227.831,185.864
0.578,39.401,4.000,4.000,248.775,227.836,185.894
0.579,39.450,3.992,3.992,248.741,227.853,185.925
0.581,39.500,3.983,3.983,248.710,227.879,185.955
0.583,39.553,3.973,3.973,248.681,227.912,185.985
0.584,39.607,3.964,3.964,248.653,227.948,186.013
0.586,39.661,3.956,3.956,248.628,227.987,186.040
0.588,39.712,3.952,3.952,248.604,228.026,186.064
0.589,39.760,3.949,3.949,248.581,228.062,186.085
0.591,39.802,3.948,3.948,248.560,228.093,186.102
0.593,39.836,3.947,3.947,248.539,228.118,186.116
0.594,39.862,3.946,3.946,248.520,228.133,186.125
0.596,39.884,3.944,3.944,248.501,228.142,186.130
0.598,39.903,3.941,3.941,248.483,228.147,186.135
0.599,39.923,3.937,3.937,248.465,228.154,186.142
0.601,39.948,3.931,3.931,248.447,228.166,186.153
0.603,39.981,3.923,3.923,248.429,228.188,186.171
0.604,40.029,3.915,3.915,248.411,228.223,186.198
0.606,40.098,3.905,3.905,248.392,228.277,186.237
0.608,40.192,3.894,3.894,248.373,228.352,186.290
0.609,40.318,3.885,3.885,248.352,228.454,186.360
0.611,40.478,3.879,3.879,248.331,228.586,186.449
0.613,40.674,3.880,3.880,248.308,228.747,186.557
0.614,40.896,3.890,3.890,248.284,228.932,186.678
0.616,41.136,3.912,3.912,248.259,229.132,186.809
0.618,41.388,3.947,3.947,248.233,229.343,186.944
0.619,41.642,3.993,3.993,248.207,229.557,187.078
0.621,41.892,4.045,4.045,248.180,229.768,187.208
0.623,42.128,4.098,4.098,248.152,229.969,187.329
0.624,42.343,4.149,4.149,248.123,230.154,187.435
0.626,42.529,4.193,4.193,248.095,230.316,187.522
0.627,42.678,4.226,4.226,248.066,230.448,187.586
0.629,42.788,4.246,4.246,248.037,230.547,187.624
0.631,42.865,4.258,4.258,248.009,230.616,187.643
0.632,42.914,4.261,4.261,247.983,230.657,187.648
0.634,42.944,4.259,4.259,247.959,230.675,187.645
0.636,42.966,4.254,4.254,247.938,230.673,187.640
0.637,42.991,4.246,4.246,247.921,230.654,187.639
0.639,43.027,4.235,4.235,247.909,230.621,187.649
0.641,43.078,4.219,4.219,247.903,230.578,187.674
0.642,43.146,4.194,4.194,247.903,230.529,187.722
0.644,43.239,4.158,4.158,247.911,230.477,187.798
0.646,43.360,4.108,4.108,247.926,230.424,187.907
0.647,43.507,4.042,4.042,247.946,230.378,188.045
0.649,43.674,3.961,3.961,247.966,230.341,188.206
0.651,43.856,3.874,3.874,247.983,230.321,188.386
0.652,44.050,3.786,3.786,247.993,230.320,188.580
0.654,44.253,3.704,3.704,247.993,230.346,188.782
0.656,44.466,3.636,3.636,247.979,230.403,188.986
0.657,44.691,3.589,3.589,247.946,230.495,189.189
0.659,44.933,3.564,3.564,247.892,230.629,189.383
0.661,45.201,3.559,3.559,247.812,230.809,189.565
0.662,45.504,3.568,3.568,247.704,231.039,189.728
0.664,45.842,3.589,3.589,247.569,231.314,189.874
0.666,46.210,3.618,3.618,247.416,231.623,190.003
0.667,46.599,3.650,3.650,247.248,231.954,190.117
0.669,46.997,3.684,3.684,247.074,232.297,190.218
0.671,47.394,3.715,3.715,246.898,232.641,190.307
0.672,47.778,3.743,3.743,246.726,232.976,190.386
0.674,48.137,3.765,3.765,246.565,233.290,190.457
0.675,48.461,3.779,3.779,246.421,233.572,190.521
