"T","Distance","Radius","FreeRadius","X","Y","Z"
0.000,0.000,1.088,1.088,100.127,-51.623,0.882
0.004,0.049,1.101,1.101,100.136,-51.603,0.925
0.007,0.097,1.114,1.114,100.145,-51.583,0.968
0.011,0.144,1.127,1.127,100.153,-51.564,1.011
0.015,0.191,1.141,1.141,100.160,-51.547,1.053
0.018,0.235,1.155,1.155,100.165,-51.532,1.095
0.022,0.277,1.170,1.170,100.168,-51.521,1.135
0.025,0.318,1.184,1.184,100.168,-51.513,1.175
0.029,0.357,1.197,1.197,100.165,-51.509,1.214
0.033,0.395,1.207,1.207,100.159,-51.511,1.252
0.036,0.433,1.214,1.214,100.149,-51.518,1.288
0.040,0.473,1.219,1.219,100.135,-51.531,1.323
0.044,0.516,1.223,1.223,100.116,-51.550,1.356
0.047,0.563,1.228,1.228,100.093,-51.575,1.389
0.051,0.614,1.236,1.236,100.067,-51.604,1.422
0.055,0.669,1.249,1.249,100.038,-51.637,1.455
0.058,0.729,1.267,1.267,100.005,-51.673,1.488
0.062,0.792,1.293,1.293,99.970,-51.713,1.524
0.065,0.860,1.322,1.322,99.932,-51.755,1.561
0.069,0.931,1.347,1.347,99.893,-51.799,1.600
0.073,1.006,1.360,1.360,99.851,-51.845,1.642
0.076,1.083,1.361,1.361,99.808,-51.891,1.687
0.080,1.164,1.355,1.355,99.762,-51.939,1.734
0.084,1.248,1.349,1.349,99.715,-51.990,1.781
0.087,1.335,1.347,1.347,99.664,-52.046,1.824
0.091,1.427,1.351,1.351,99.609,-52.108,1.862
0.095,1.524,1.365,1.365,99.550,-52.179,1.892
0.098,1.629,1.401,1.401,99.486,-52.260,1.912
0.102,1.745,1.468,1.468,99.416,-52.352,1.919
0.105,1.876,1.567,1.567,99.339,-52.458,1.911
0.109,2.025,1.669,1.669,99.255,-52.578,1.885
0.113,2.196,1.745,1.745,99.164,-52.716,1.838
0.116,2.390,1.788,1.788,99.065,-52.868,1.772
0.120,2.602,1.824,1.824,98.960,-53.032,1.689
0.124,2.827,1.876,1.876,98.851,-53.204,1.591
0.127,3.062,1.949,1.949,98.740,-53.380,1.483
0.131,3.300,2.038,2.038,98.628,-53.555,1.368
0.135,3.536,2.137,2.137,98.517,-53.726,1.248
0.138,3.766,2.242,2.242,98.408,-53.888,1.126
0.142,3.984,2.348,2.348,98.303,-54.038,1.006
0.145,4.186,2.454,2.454,98.205,-54.171,0.891
0.149,4.366,2.558,2.558,98.114,-54.283,0.784
0.153,4.522,2.663,2.663,98.031,-54.373,0.688
0.156,4.656,2.761,2.761,97.957,-54.445,0.602
0.160,4.770,2.835,2.835,97.890,-54.502,0.529
0.164,4.866,2.870,2.870,97.832,-54.549,0.469
0.167,4.946,2.871,2.871,97.780,-54.589,0.422
0.171,5.013,2.863,2.863,97.736,-54.627,0.389
0.175,5.070,2.868,2.868,97.698,-54.666,0.372
0.178,5.125,2.887,2.887,97.667,-54.711,0.370
0.182,5.186,2.905,2.905,97.642,-54.765,0.385
0.185,5.264,2.912,2.912,97.623,-54.833,0.417
0.189,5.362,2.911,2.911,97.609,-54.917,0.466
0.193,5.478,2.907,2.907,97.601,-55.014,0.529
0.196,5.608,2.905,2.905,97.597,-55.121,0.602
0.200,5.746,2.908,2.908,97.599,-55.234,0.681
0.204,5.887,2.916,2.916,97.606,-55.350,0.762
0.207,6.027,2.930,2.930,97.618,-55.465,0.841
0.211,6.161,2.948,2.948,97.635,-55.574,0.915
0.215,6.283,2.969,2.969,97.656,-55.676,0.979
0.218,6.389,2.988,2.988,97.682,-55.766,1.030
0.222,6.476,2.996,2.996,97.713,-55.840,1.063
0.225,6.543,2.988,2.988,97.748,-55.895,1.077
0.229,6.595,2.972,2.972,97.783,-55.933,1.073
0.233,6.637,2.958,2.958,97.816,-55.955,1.058
0.236,6.673,2.954,2.954,97.843,-55.964,1.036
0.240,6.702,2.954,2.954,97.860,-55.961,1.012
0.244,6.725,2.952,2.952,97.863,-55.949,0.993
0.247,6.751,2.946,2.946,97.849,-55.930,0.982
0.251,6.795,2.942,2.942,97.813,-55.906,0.986
0.255,6.865,2.945,2.945,97.753,-55.878,1.009
0.258,6.970,2.946,2.946,97.664,-55.851,1.056
0.262,7.115,2.922,2.922,97.543,-55.824,1.133
0.265,7.300,2.853,2.853,97.393,-55.799,1.238
0.269,7.516,2.748,2.748,97.220,-55.776,1.366
0.273,7.756,2.629,2.629,97.031,-55.755,1.512
0.276,8.012,2.514,2.514,96.833,-55.735,1.673
0.280,8.277,2.410,2.410,96.630,-55.717,1.843
0.284,8.543,2.316,2.316,96.430,-55.701,2.017
0.287,8.802,2.233,2.233,96.239,-55.686,2.191
0.291,9.046,2.163,2.163,96.063,-55.672,2.361
0.295,9.269,2.107,2.107,95.909,-55.660,2.521
0.298,9.462,2.062,2.062,95.783,-55.649,2.667
0.302,9.625,2.025,2.025,95.685,-55.639,2.797
0.305,9.761,1.993,1.993,95.614,-55.630,2.912
0.309,9.873,1.963,1.963,95.564,-55.622,3.012
0.313,9.964,1.936,1.936,95.534,-55.615,3.098
0.316,10.039,1.911,1.911,95.519,-55.608,3.171
0.320,10.100,1.887,1.887,95.515,-55.603,3.231
0.324,10.149,1.866,1.866,95.520,-55.597,3.280
0.327,10.189,1.848,1.848,95.531,-55.593,3.318
0.331,10.219,1.835,1.835,95.542,-55.588,3.346
0.335,10.240,1.826,1.826,95.552,-55.584,3.363
0.338,10.252,1.822,1.822,95.558,-55.581,3.373
0.342,10.256,1.822,1.822,95.558,-55.579,3.376
0.345,10.261,1.824,1.824,95.553,-55.579,3.376
0.349,10.273,1.826,1.826,95.542,-55.583,3.373
0.353,10.294,1.828,1.828,95.523,-55.592,3.371
0.356,10.324,1.827,1.827,95.497,-55.607,3.372
0.360,10.364,1.823,1.823,95.463,-55.627,3.377
0.364,10.417,1.814,1.814,95.419,-55.656,3.389
0.367,10.485,1.799,1.799,95.366,-55.693,3.411
0.371,10.570,1.778,1.778,95.303,-55.740,3.443
0.375,10.674,1.752,1.752,95.230,-55.797,3.488
0.378,10.793,1.721,1.721,95.148,-55.863,3.544
0.382,10.927,1.689,1.689,95.058,-55.938,3.610
0.385,11.073,1.657,1.657,94.962,-56.020,3.682
0.389,11.228,1.627,1.627,94.862,-56.110,3.761
0.393,11.391,1.601,1.601,94.759,-56.205,3.842
0.396,11.558,1.581,1.581,94.654,-56.304,3.926
0.400,11.727,1.567,1.567,94.549,-56.408,4.009
0.404,11.896,1.557,1.557,94.447,-56.515,4.091
0.407,12.063,1.553,1.553,94.347,-56.624,4.168
0.411,12.226,1.555,1.555,94.251,-56.734,4.241
0.415,12.382,1.567,1.567,94.160,-56.841,4.309
0.418,12.529,1.589,1.589,94.074,-56.941,4.372
0.422,12.664,1.614,1.614,93.991,-57.029,4.433
0.425,12.785,1.635,1.635,93.913,-57.101,4.492
0.429,12.893,1.657,1.657,93.838,-57.153,4.550
0.433,12.989,1.702,1.702,93.766,-57.180,4.607
0.436,13.079,1.794,1.794,93.698,-57.177,4.665
0.440,13.174,1.909,1.909,93.633,-57.142,4.725
0.444,13.289,1.984,1.984,93.570,-57.069,4.788
0.447,13.434,1.964,1.964,93.511,-56.955,4.854
0.451,13.609,1.872,1.872,93.454,-56.804,4.923
0.455,13.808,1.769,1.769,93.400,-56.625,4.992
0.458,14.024,1.702,1.704,93.349,-56.426,5.062
0.462,14.250,1.674,1.677,93.302,-56.216,5.130
0.465,14.477,1.678,1.677,93.258,-56.003,5.194
0.469,14.697,1.702,1.691,93.218,-55.796,5.254
0.473,14.901,1.724,1.714,93.183,-55.602,5.307
0.476,15.082,1.724,1.738,93.151,-55.430,5.353
0.480,15.230,1.699,1.755,93.124,-55.289,5.390
0.484,15.339,1.664,1.762,93.102,-55.186,5.416
0.487,15.408,1.637,1.752,93.084,-55.121,5.433
0.491,15.446,1.623,1.732,93.071,-55.087,5.443
0.495,15.461,1.620,1.712,93.061,-55.076,5.447
0.498,15.469,1.624,1.702,93.056,-55.082,5.450
0.502,15.485,1.636,1.702,93.053,-55.098,5.452
0.505,15.504,1.651,1.704,93.054,-55.115,5.457
0.509,15.520,1.668,1.706,93.058,-55.128,5.467
0.513,15.538,1.682,1.704,93.064,-55.128,5.484
0.516,15.572,1.688,1.698,93.072,-55.110,5.511
0.520,15.633,1.684,1.688,93.082,-55.064,5.550
0.524,15.723,1.674,1.675,93.094,-54.991,5.601
0.527,15.840,1.661,1.661,93.108,-54.893,5.663
0.531,15.977,1.650,1.650,93.123,-54.775,5.733
0.535,16.131,1.645,1.645,93.140,-54.643,5.808
0.538,16.294,1.652,1.652,93.158,-54.500,5.886
0.542,16.463,1.669,1.669,93.178,-54.352,5.965
0.545,16.633,1.692,1.692,93.200,-54.202,6.042
0.549,16.797,1.716,1.716,93.223,-54.057,6.115
0.553,16.952,1.738,1.738,93.248,-53.919,6.181
0.556,17.092,1.753,1.753,93.274,-53.794,6.238
0.560,17.213,1.762,1.762,93.302,-53.686,6.284
0.564,17.318,1.769,1.769,93.330,-53.591,6.322
0.567,17.409,1.783,1.783,93.359,-53.511,6.351
0.571,17.487,1.804,1.804,93.387,-53.442,6.374
0.575,17.554,1.829,1.829,93.414,-53.383,6.391
0.578,17.611,1.853,1.853,93.440,-53.334,6.405
0.582,17.660,1.876,1.876,93.464,-53.293,6.416
0.585,17.702,1.896,1.896,93.486,-53.258,6.426
0.589,17.739,1.913,1.913,93.505,-53.228,6.436
0.593,17.771,1.927,1.927,93.519,-53.202,6.448
0.596,17.802,1.937,1.937,93.530,-53.178,6.462
0.600,17.831,1.943,1.943,93.538,-53.156,6.480
0.604,17.861,1.945,1.945,93.544,-53.136,6.501
0.607,17.892,1.946,1.946,93.548,-53.118,6.527
0.611,17.925,1.945,1.945,93.551,-53.102,6.556
0.615,17.963,1.944,1.944,93.556,-53.088,6.590
0.618,18.004,1.944,1.944,93.561,-53.076,6.629
0.622,18.050,1.946,1.946,93.569,-53.066,6.674
0.625,18.102,1.950,1.950,93.580,-53.057,6.724
0.629,18.160,1.958,1.958,93.595,-53.050,6.779
0.633,18.225,1.971,1.971,93.615,-53.044,6.841
0.636,18.296,1.990,1.990,93.640,-53.039,6.907
0.640,18.371,2.015,2.015,93.668,-53.031,6.976
0.644,18.448,2.043,2.043,93.698,-53.021,7.046
0.647,18.525,2.070,2.070,93.731,-53.005,7.115
0.651,18.602,2.090,2.090,93.763,-52.983,7.181
0.655,18.678,2.097,2.097,93.796,-52.953,7.242
0.658,18.752,2.087,2.087,93.827,-52.912,7.296
0.662,18.827,2.062,2.062,93.856,-52.859,7.341
0.665,18.906,2.039,2.039,93.882,-52.793,7.375
0.669,18.993,2.032,2.032,93.904,-52.712,7.398
0.673,19.090,2.036,2.036,93.921,-52.618,7.411
0.676,19.195,2.034,2.034,93.934,-52.514,7.421
0.680,19.304,2.013,2.013,93.943,-52.406,7.433
0.684,19.416,1.987,1.988,93.947,-52.296,7.454
0.687,19.529,1.980,1.980,93.946,-52.189,7.489
0.691,19.644,2.006,2.003,93.940,-52.088,7.544
0.695,19.766,2.048,2.045,93.930,-51.998,7.626
0.698,19.903,2.083,2.087,93.914,-51.922,7.740
0.702,20.067,2.099,2.118,93.894,-51.865,7.891
0.705,20.267,2.098,2.139,93.868,-51.831,8.087
0.709,20.507,2.083,2.152,93.839,-51.818,8.325
0.713,20.782,2.067,2.163,93.808,-51.821,8.598
0.716,21.083,2.073,2.185,93.777,-51.836,8.897
0.720,21.403,2.118,2.229,93.750,-51.857,9.215
0.724,21.733,2.203,2.297,93.728,-51.879,9.543
0.727,22.064,2.317,2.387,93.714,-51.897,9.874
0.731,22.388,2.451,2.497,93.710,-51.905,10.198
0.735,22.698,2.593,2.619,93.719,-51.898,10.507
0.738,22.987,2.731,2.743,93.742,-51.870,10.794
0.742,23.252,2.857,2.861,93.783,-51.817,11.050
0.745,23.494,2.965,2.966,93.841,-51.737,11.271
0.749,23.719,3.054,3.053,93.913,-51.635,11.459
0.753,23.932,3.125,3.124,93.996,-51.518,11.616
0.756,24.134,3.188,3.187,94.084,-51.392,11.746
0.760,24.324,3.252,3.253,94.176,-51.261,11.851
0.764,24.501,3.316,3.319,94.266,-51.133,11.933
0.767,24.661,3.373,3.377,94.351,-51.014,11.996
0.771,24.799,3.415,3.419,94.428,-50.908,12.042
0.775,24.910,3.444,3.445,94.493,-50.824,12.074
0.778,24.989,3.460,3.460,94.541,-50.765,12.094
0.782,25.032,3.467,3.466,94.571,-50.736,12.105
0.785,25.049,3.465,3.465,94.586,-50.730,12.109
0.789,25.060,3.457,3.457,94.590,-50.739,12.108
0.793,25.078,3.446,3.446,94.588,-50.756,12.103
0.796,25.098,3.435,3.435,94.583,-50.774,12.096
0.800,25.111,3.426,3.426,94.580,-50.785,12.089
0.804,25.118,3.424,3.424,94.582,-50.781,12.084
0.807,25.147,3.430,3.430,94.595,-50.754,12.082
0.811,25.210,3.446,3.446,94.622,-50.697,12.085
0.815,25.315,3.470,3.470,94.666,-50.603,12.095
0.818,25.469,3.497,3.497,94.732,-50.465,12.114
0.822,25.665,3.525,3.525,94.817,-50.290,12.139
0.825,25.894,3.560,3.560,94.915,-50.086,12.171
0.829,26.144,3.610,3.610,95.023,-49.862,12.206
0.833,26.407,3.677,3.677,95.136,-49.628,12.243
0.836,26.672,3.759,3.759,95.249,-49.391,12.281
0.840,26.929,3.851,3.851,95.358,-49.161,12.318
0.844,27.168,3.946,3.946,95.458,-48.947,12.351
0.847,27.379,4.036,4.036,95.545,-48.758,12.381
0.851,27.551,4.111,4.111,95.615,-48.602,12.404
0.855,27.676,4.166,4.166,95.663,-48.488,12.420
0.858,27.757,4.195,4.195,95.693,-48.413,12.429
0.862,27.804,4.196,4.196,95.711,-48.370,12.434
0.865,27.826,4.182,4.182,95.726,-48.353,12.438
0.869,27.844,4.174,4.174,95.743,-48.354,12.443
0.873,27.875,4.183,4.183,95.770,-48.366,12.450
0.876,27.924,4.197,4.197,95.814,-48.383,12.464
0.880,27.996,4.197,4.197,95.881,-48.396,12.486
0.884,28.099,4.182,4.182,95.979,-48.399,12.519
0.887,28.243,4.172,4.172,96.115,-48.385,12.564
0.891,28.437,4.187,4.187,96.295,-48.347,12.625
0.895,28.681,4.225,4.225,96.518,-48.285,12.703
0.898,28.965,4.266,4.266,96.773,-48.202,12.796
0.902,29.281,4.294,4.294,97.052,-48.102,12.905
0.905,29.617,4.326,4.326,97.345,-47.991,13.028
0.909,29.965,4.395,4.395,97.642,-47.873,13.166
0.913,30.316,4.521,4.521,97.934,-47.752,13.318
0.916,30.660,4.669,4.669,98.211,-47.633,13.483
0.920,30.989,4.793,4.793,98.464,-47.519,13.661
0.924,31.297,4.859,4.859,98.683,-47.417,13.851
0.927,31.579,4.869,4.869,98.859,-47.329,14.053
0.931,31.837,4.830,4.830,98.988,-47.257,14.265
0.935,32.079,4.759,4.759,99.077,-47.200,14.483
0.938,32.311,4.692,4.692,99.131,-47.153,14.703
0.942,32.533,4.660,4.660,99.157,-47.116,14.921
0.945,32.748,4.666,4.666,99.162,-47.084,15.133
0.949,32.952,4.695,4.695,99.150,-47.055,15.335
0.953,33.144,4.734,4.734,99.129,-47.027,15.523
0.956,33.319,4.778,4.778,99.105,-46.996,15.694
0.960,33.473,4.826,4.826,99.085,-46.961,15.843
0.964,33.604,4.872,4.872,99.074,-46.918,15.966
0.967,33.713,4.908,4.908,99.076,-46.865,16.061
0.971,33.807,4.919,4.919,99.092,-46.804,16.130
0.975,33.894,4.910,4.910,99.119,-46.735,16.177
0.978,33.983,4.902,4.902,99.156,-46.659,16.203
0.982,34.077,4.919,4.919,99.201,-46.578,16.213
0.985,34.178,4.960,4.960,99.254,-46.491,16.208
0.989,34.287,5.004,5.004,99.312,-46.401,16.192
0.993,34.402,5.029,5.029,99.375,-46.308,16.168
0.996,34.521,5.035,5.035,99.441,-46.212,16.137
1.000,34.643,5.032,5.032,99.508,-46.116,16.104
