"T","Distance","Radius","FreeRadius","X","Y","Z"
0.000,0.000,1.074,1.074,189.699,169.325,190.458
0.001,0.073,1.078,1.078,189.680,169.332,190.528
0.003,0.145,1.082,1.082,189.661,169.337,190.598
0.004,0.216,1.086,1.086,189.646,169.339,190.667
0.006,0.286,1.090,1.090,189.635,169.335,190.737
0.007,0.356,1.094,1.094,189.631,169.324,190.805
0.008,0.427,1.099,1.099,189.633,169.304,190.873
0.010,0.502,1.104,1.104,189.645,169.273,190.941
0.011,0.585,1.109,1.109,189.667,169.229,191.007
0.012,0.679,1.115,1.115,189.701,169.171,191.073
0.014,0.788,1.122,1.122,189.747,169.097,191.138
0.015,0.909,1.129,1.129,189.804,169.010,191.200
0.017,1.037,1.138,1.138,189.867,168.916,191.260
0.018,1.168,1.147,1.147,189.932,168.817,191.316
0.019,1.296,1.159,1.159,189.996,168.719,191.367
0.021,1.415,1.172,1.172,190.056,168.626,191.412
0.022,1.521,1.187,1.187,190.107,168.542,191.451
0.024,1.608,1.202,1.202,190.146,168.471,191.482
0.025,1.670,1.216,1.216,190.169,168.418,191.505
0.026,1.706,1.228,1.228,190.174,168.385,191.518
0.028,1.724,1.236,1.236,190.166,168.370,191.524
0.029,1.741,1.240,1.240,190.149,168.366,191.523
0.030,1.760,1.238,1.238,190.132,168.370,191.519
0.032,1.775,1.229,1.229,190.119,168.375,191.511
0.033,1.784,1.215,1.215,190.118,168.376,191.503
0.035,1.803,1.197,1.197,190.134,168.369,191.495
0.036,1.849,1.177,1.177,190.175,168.347,191.491
0.037,1.931,1.155,1.155,190.246,168.306,191.491
0.039,2.055,1.134,1.134,190.352,168.241,191.497
0.040,2.216,1.115,1.115,190.488,168.156,191.505
0.041,2.406,1.100,1.100,190.647,168.054,191.514
0.043,2.614,1.088,1.088,190.822,167.941,191.518
0.044,2.832,1.080,1.080,191.004,167.822,191.514
0.046,3.051,1.076,1.076,191.187,167.701,191.499
0.047,3.264,1.077,1.077,191.361,167.582,191.469
0.048,3.465,1.082,1.082,191.521,167.472,191.419
0.050,3.648,1.091,1.091,191.658,167.375,191.347
0.051,3.815,1.106,1.106,191.767,167.293,191.250
0.053,3.975,1.126,1.126,191.848,167.225,191.130
0.054,4.137,1.153,1.153,191.908,167.163,190.992
0.055,4.305,1.189,1.189,191.952,167.102,190.843
0.057,4.478,1.235,1.235,191.986,167.034,190.686
0.058,4.658,1.292,1.292,192.015,166.954,190.528
0.059,4.844,1.361,1.361,192.044,166.855,190.373
0.061,5.039,1.445,1.445,192.079,166.731,190.227
0.062,5.248,1.544,1.544,192.126,166.576,190.095
0.064,5.480,1.653,1.653,192.189,166.385,189.981
0.065,5.734,1.771,1.771,192.267,166.161,189.885
0.066,6.007,1.892,1.892,192.354,165.916,189.805
0.068,6.291,2.014,2.014,192.447,165.656,189.740
0.069,6.577,2.134,2.134,192.541,165.391,189.686
0.071,6.857,2.248,2.248,192.631,165.129,189.641
0.072,7.122,2.352,2.352,192.713,164.881,189.604
0.073,7.362,2.446,2.446,192.783,164.653,189.573
0.075,7.568,2.528,2.528,192.836,164.456,189.545
0.076,7.732,2.600,2.600,192.869,164.297,189.518
0.077,7.858,2.660,2.660,192.881,164.175,189.492
0.079,7.952,2.708,2.708,192.878,164.084,189.466
0.080,8.023,2.743,2.743,192.861,164.020,189.441
0.082,8.079,2.765,2.765,192.835,163.977,189.417
0.083,8.127,2.776,2.776,192.802,163.950,189.394
0.084,8.172,2.778,2.778,192.766,163.933,189.372
0.086,8.215,2.775,2.775,192.731,163.922,189.351
0.087,8.254,2.768,2.768,192.699,163.911,189.330
0.089,8.290,2.762,2.762,192.675,163.895,189.311
0.090,8.323,2.758,2.758,192.657,163.873,189.293
0.091,8.356,2.760,2.760,192.647,163.847,189.276
0.093,8.390,2.769,2.770,192.641,163.818,189.259
0.094,8.424,2.785,2.785,192.641,163.787,189.244
0.095,8.459,2.804,2.804,192.645,163.756,189.230
0.097,8.492,2.826,2.826,192.651,163.726,189.216
0.098,8.524,2.849,2.849,192.660,163.698,189.203
0.100,8.553,2.872,2.872,192.671,163.674,189.192
0.101,8.577,2.893,2.893,192.682,163.655,189.181
0.102,8.598,2.910,2.910,192.693,163.640,189.170
0.104,8.616,2.925,2.925,192.703,163.631,189.161
0.105,8.631,2.938,2.938,192.714,163.624,189.152
0.107,8.644,2.949,2.949,192.723,163.621,189.143
0.108,8.656,2.959,2.959,192.732,163.619,189.135
0.109,8.667,2.970,2.970,192.739,163.619,189.127
0.111,8.676,2.981,2.981,192.744,163.620,189.119
0.112,8.685,2.994,2.994,192.748,163.621,189.111
0.113,8.693,3.007,3.007,192.749,163.621,189.103
0.115,8.701,3.020,3.020,192.750,163.621,189.095
0.116,8.710,3.029,3.029,192.750,163.619,189.087
0.118,8.719,3.035,3.035,192.752,163.617,189.078
0.119,8.731,3.035,3.035,192.758,163.614,189.068
0.120,8.747,3.027,3.027,192.768,163.609,189.057
0.122,8.768,3.011,3.011,192.785,163.603,189.045
0.123,8.797,2.986,2.986,192.810,163.597,189.032
0.124,8.835,2.952,2.952,192.844,163.589,189.017
0.126,8.884,2.911,2.911,192.888,163.580,189.000
0.127,8.940,2.865,2.865,192.940,163.570,188.979
0.129,8.999,2.814,2.814,192.990,163.560,188.950
0.130,9.058,2.760,2.760,193.031,163.551,188.909
0.131,9.121,2.705,2.705,193.057,163.543,188.851
0.133,9.198,2.648,2.648,193.058,163.538,188.775
0.134,9.303,2.591,2.591,193.027,163.536,188.674
0.136,9.448,2.534,2.534,192.957,163.538,188.547
0.137,9.646,2.477,2.477,192.839,163.545,188.388
0.138,9.905,2.419,2.420,192.668,163.557,188.194
0.140,10.222,2.362,2.363,192.446,163.575,187.969
0.141,10.580,2.306,2.306,192.186,163.600,187.724
0.142,10.965,2.250,2.250,191.901,163.632,187.467
0.144,11.360,2.197,2.196,191.604,163.673,187.209
0.145,11.751,2.146,2.145,191.308,163.722,186.960
0.147,12.121,2.100,2.100,191.024,163.780,186.729
0.148,12.455,2.061,2.060,190.767,163.848,186.527
0.149,12.739,2.029,2.028,190.548,163.927,186.363
0.151,12.962,2.007,2.006,190.380,164.016,186.247
0.152,13.130,1.995,1.995,190.261,164.112,186.177
0.154,13.260,1.993,1.994,190.178,164.206,186.145
0.155,13.363,1.998,2.000,190.117,164.290,186.140
0.156,13.448,2.007,2.010,190.064,164.354,186.152
0.158,13.520,2.017,2.021,190.006,164.391,186.170
0.159,13.599,2.026,2.029,189.927,164.392,186.186
0.160,13.719,2.029,2.031,189.816,164.348,186.188
0.162,13.906,2.024,2.023,189.657,164.250,186.167
0.163,14.182,2.010,2.006,189.438,164.092,186.113
0.165,14.546,1.991,1.984,189.160,163.874,186.025
0.166,14.978,1.972,1.962,188.837,163.612,185.910
0.167,15.456,1.958,1.946,188.484,163.319,185.776
0.169,15.958,1.954,1.943,188.117,163.009,185.629
0.170,16.463,1.966,1.957,187.751,162.697,185.477
0.172,16.948,1.996,1.995,187.401,162.396,185.328
0.173,17.392,2.051,2.061,187.083,162.120,185.188
0.174,17.772,2.125,2.150,186.811,161.884,185.067
0.176,18.068,2.213,2.254,186.600,161.700,184.969
0.177,18.274,2.306,2.364,186.453,161.573,184.898
0.178,18.404,2.399,2.471,186.362,161.495,184.851
0.180,18.472,2.484,2.568,186.314,161.456,184.822
0.181,18.493,2.556,2.645,186.300,161.448,184.808
0.183,18.512,2.606,2.696,186.310,161.464,184.805
0.184,18.550,2.636,2.718,186.334,161.493,184.809
0.185,18.595,2.648,2.719,186.361,161.529,184.817
0.187,18.635,2.649,2.705,186.380,161.563,184.824
0.188,18.657,2.642,2.682,186.383,161.585,184.826
0.189,18.678,2.633,2.656,186.364,161.593,184.822
0.191,18.716,2.627,2.635,186.327,161.589,184.813
0.192,18.769,2.627,2.625,186.277,161.575,184.801
0.194,18.835,2.637,2.628,186.217,161.553,184.785
0.195,18.908,2.655,2.643,186.151,161.527,184.769
0.196,18.984,2.678,2.666,186.082,161.498,184.752
0.198,19.059,2.704,2.694,186.016,161.469,184.736
0.199,19.127,2.729,2.722,185.954,161.442,184.722
0.201,19.185,2.753,2.749,185.902,161.420,184.713
0.202,19.230,2.771,2.770,185.861,161.404,184.706
0.203,19.263,2.782,2.784,185.830,161.393,184.704
0.205,19.285,2.786,2.789,185.808,161.387,184.703
0.206,19.300,2.785,2.789,185.794,161.385,184.705
0.207,19.307,2.781,2.783,185.787,161.386,184.707
0.209,19.313,2.773,2.775,185.785,161.391,184.710
0.210,19.321,2.765,2.766,185.789,161.398,184.712
0.212,19.332,2.756,2.756,185.795,161.406,184.713
0.213,19.345,2.748,2.748,185.805,161.416,184.712
0.214,19.360,2.743,2.742,185.816,161.426,184.709
0.216,19.375,2.739,2.738,185.826,161.435,184.705
0.217,19.386,2.736,2.735,185.835,161.442,184.701
0.219,19.394,2.735,2.734,185.840,161.446,184.697
0.220,19.396,2.735,2.735,185.840,161.447,184.696
0.221,19.404,2.737,2.737,185.833,161.442,184.697
0.223,19.423,2.740,2.741,185.818,161.431,184.702
0.224,19.455,2.745,2.745,185.793,161.414,184.711
0.225,19.502,2.750,2.751,185.757,161.388,184.726
0.227,19.564,2.757,2.757,185.709,161.354,184.747
0.228,19.639,2.764,2.764,185.652,161.313,184.772
0.230,19.722,2.772,2.772,185.588,161.268,184.801
0.231,19.811,2.780,2.780,185.521,161.219,184.832
0.232,19.902,2.788,2.788,185.452,161.169,184.864
0.234,19.992,2.797,2.797,185.385,161.119,184.896
0.235,20.077,2.805,2.805,185.321,161.071,184.927
0.237,20.154,2.814,2.814,185.264,161.027,184.955
0.238,20.220,2.822,2.822,185.217,160.988,184.980
0.239,20.274,2.830,2.830,185.179,160.955,185.000
0.241,20.316,2.837,2.837,185.152,160.929,185.016
0.242,20.347,2.844,2.844,185.132,160.908,185.029
0.243,20.368,2.851,2.851,185.121,160.893,185.039
0.245,20.382,2.857,2.857,185.116,160.882,185.047
0.246,20.391,2.862,2.862,185.116,160.875,185.052
0.248,20.397,2.867,2.867,185.121,160.873,185.056
0.249,20.406,2.870,2.870,185.129,160.874,185.059
0.250,20.417,2.873,2.873,185.139,160.877,185.061
0.252,20.430,2.875,2.875,185.150,160.884,185.063
0.253,20.442,2.876,2.876,185.160,160.890,185.063
0.254,20.451,2.875,2.875,185.167,160.896,185.062
0.256,20.456,2.872,2.872,185.170,160.898,185.059
0.257,20.464,2.865,2.865,185.165,160.896,185.053
0.259,20.482,2.854,2.854,185.152,160.888,185.043
0.260,20.514,2.837,2.837,185.129,160.872,185.028
0.261,20.562,2.813,2.813,185.093,160.847,185.009
0.263,20.629,2.782,2.782,185.043,160.810,184.984
0.264,20.717,2.743,2.743,184.977,160.761,184.954
0.266,20.821,2.700,2.700,184.897,160.702,184.920
0.267,20.939,2.654,2.654,184.805,160.637,184.886
0.268,21.068,2.610,2.610,184.702,160.566,184.854
0.270,21.205,2.571,2.571,184.589,160.493,184.826
0.271,21.348,2.539,2.539,184.469,160.420,184.806
0.272,21.494,2.519,2.519,184.342,160.349,184.794
0.274,21.641,2.511,2.511,184.210,160.283,184.795
0.275,21.789,2.516,2.516,184.075,160.224,184.810
0.277,21.938,2.529,2.529,183.938,160.174,184.840
0.278,22.087,2.546,2.546,183.802,160.128,184.881
0.279,22.235,2.564,2.564,183.669,160.083,184.926
0.281,22.378,2.580,2.580,183.541,160.036,184.970
0.282,22.515,2.589,2.589,183.420,159.983,185.008
0.284,22.646,2.589,2.589,183.308,159.921,185.034
0.285,22.771,2.577,2.577,183.209,159.845,185.043
0.286,22.898,2.556,2.556,183.123,159.752,185.029
0.288,23.037,2.526,2.526,183.054,159.639,184.988
0.289,23.200,2.488,2.488,183.002,159.503,184.915
0.290,23.386,2.444,2.444,182.966,159.350,184.815
0.292,23.593,2.395,2.395,182.945,159.183,184.695
0.293,23.816,2.342,2.342,182.935,159.007,184.559
0.295,24.047,2.286,2.286,182.936,158.828,184.413
0.296,24.280,2.229,2.229,182.945,158.651,184.262
0.297,24.508,2.174,2.174,182.960,158.480,184.111
0.299,24.724,2.120,2.120,182.980,158.320,183.967
0.300,24.921,2.072,2.072,183.002,158.176,183.835
0.302,25.093,2.029,2.029,183.025,158.052,183.719
0.303,25.242,1.994,1.994,183.050,157.946,183.617
0.304,25.370,1.969,1.969,183.075,157.857,183.528
0.306,25.481,1.952,1.952,183.102,157.782,183.451
0.307,25.577,1.942,1.942,183.131,157.721,183.383
0.308,25.661,1.937,1.937,183.162,157.670,183.323
0.310,25.736,1.935,1.935,183.194,157.629,183.269
0.311,25.806,1.935,1.935,183.229,157.594,183.220
0.313,25.872,1.935,1.935,183.267,157.565,183.173
0.314,25.938,1.934,1.934,183.307,157.540,183.128
0.315,26.004,1.930,1.930,183.350,157.518,183.083
0.317,26.070,1.924,1.924,183.394,157.498,183.039
0.318,26.136,1.916,1.915,183.440,157.479,182.994
0.320,26.203,1.905,1.904,183.487,157.462,182.950
0.321,26.270,1.892,1.891,183.534,157.444,182.906
0.322,26.338,1.875,1.875,183.582,157.426,182.861
0.324,26.406,1.857,1.857,183.629,157.407,182.815
0.325,26.476,1.835,1.836,183.676,157.386,182.769
0.326,26.546,1.812,1.814,183.721,157.362,182.720
0.328,26.616,1.789,1.791,183.764,157.338,182.671
0.329,26.684,1.766,1.769,183.802,157.313,182.620
0.331,26.750,1.744,1.746,183.834,157.289,182.567
0.332,26.814,1.724,1.726,183.858,157.267,182.513
0.333,26.875,1.707,1.707,183.873,157.248,182.456
0.335,26.935,1.694,1.691,183.877,157.234,182.398
0.336,26.997,1.683,1.677,183.868,157.226,182.337
0.337,27.064,1.673,1.664,183.845,157.224,182.275
0.339,27.140,1.662,1.651,183.806,157.230,182.209
0.340,27.227,1.649,1.638,183.754,157.240,182.140
0.342,27.326,1.631,1.622,183.689,157.250,182.066
0.343,27.437,1.607,1.605,183.614,157.258,181.984
0.344,27.559,1.576,1.583,183.532,157.259,181.894
0.346,27.693,1.539,1.559,183.444,157.249,181.794
0.347,27.840,1.497,1.535,183.351,157.226,181.682
0.349,28.001,1.454,1.510,183.257,157.184,181.558
0.350,28.181,1.412,1.488,183.163,157.122,181.418
0.351,28.380,1.373,1.469,183.072,157.036,181.263
0.353,28.597,1.339,1.455,182.982,156.930,181.097
0.354,28.825,1.313,1.448,182.895,156.810,180.923
0.355,29.059,1.296,1.448,182.811,156.683,180.746
0.357,29.291,1.287,1.454,182.730,156.554,180.571
0.358,29.515,1.284,1.463,182.652,156.429,180.402
0.360,29.724,1.287,1.475,182.577,156.314,180.245
0.361,29.911,1.295,1.488,182.506,156.215,180.103
0.362,30.071,1.305,1.500,182.438,156.138,179.981
0.364,30.198,1.318,1.510,182.374,156.086,179.883
0.365,30.298,1.332,1.516,182.315,156.056,179.808
0.367,30.376,1.347,1.518,182.262,156.041,179.753
0.368,30.436,1.360,1.516,182.217,156.032,179.714
0.369,30.480,1.371,1.509,182.181,156.022,179.690
0.371,30.514,1.380,1.498,182.155,156.004,179.678
0.372,30.551,1.384,1.483,182.141,155.970,179.675
0.373,30.608,1.384,1.462,182.140,155.913,179.678
0.375,30.696,1.378,1.437,182.153,155.826,179.684
0.376,30.822,1.368,1.409,182.182,155.703,179.690
0.378,30.985,1.356,1.380,182.224,155.547,179.695
0.379,31.175,1.343,1.355,182.278,155.363,179.695
0.380,31.389,1.332,1.335,182.341,155.160,179.687
0.382,31.618,1.326,1.324,182.411,154.942,179.670
0.383,31.857,1.326,1.324,182.485,154.717,179.640
0.385,32.101,1.335,1.338,182.563,154.490,179.595
0.386,32.344,1.353,1.367,182.640,154.269,179.532
0.387,32.581,1.379,1.407,182.715,154.059,179.449
0.389,32.812,1.412,1.456,182.786,153.866,179.344
0.390,33.036,1.452,1.512,182.852,153.692,179.221
0.391,33.252,1.498,1.570,182.912,153.534,179.085
0.393,33.459,1.548,1.629,182.966,153.393,178.945
0.394,33.653,1.602,1.687,183.014,153.268,178.804
0.396,33.831,1.659,1.740,183.054,153.156,178.671
0.397,33.990,1.716,1.787,183.087,153.058,178.550
0.398,34.124,1.771,1.830,183.112,152.973,178.449
0.400,34.231,1.822,1.866,183.128,152.899,178.374
0.401,34.309,1.867,1.895,183.136,152.836,178.329
0.402,34.366,1.903,1.917,183.136,152.783,178.310
0.404,34.412,1.929,1.930,183.130,152.737,178.308
0.405,34.453,1.942,1.936,183.121,152.698,178.314
0.407,34.489,1.946,1.936,183.109,152.664,178.319
0.408,34.522,1.945,1.934,183.098,152.633,178.314
0.409,34.561,1.943,1.933,183.088,152.604,178.290
0.411,34.620,1.945,1.937,183.083,152.577,178.238
0.412,34.713,1.954,1.950,183.083,152.548,178.149
0.414,34.850,1.976,1.975,183.090,152.518,178.015
0.415,35.027,2.013,2.015,183.103,152.486,177.842
0.416,35.231,2.066,2.069,183.120,152.454,177.641
0.418,35.452,2.128,2.131,183.138,152.424,177.423
0.419,35.679,2.194,2.197,183.154,152.398,177.198
0.420,35.900,2.260,2.262,183.166,152.377,176.978
0.422,36.104,2.318,2.319,183.172,152.362,176.775
0.423,36.280,2.364,2.365,183.169,152.355,176.599
0.425,36.419,2.393,2.393,183.153,152.357,176.461
0.426,36.514,2.402,2.401,183.125,152.371,176.371
0.427,36.576,2.394,2.393,183.086,152.391,176.327
0.429,36.624,2.375,2.374,183.045,152.413,176.319
0.430,36.667,2.347,2.347,183.008,152.429,176.336
0.432,36.710,2.316,2.316,182.983,152.434,176.370
0.433,36.752,2.286,2.286,182.976,152.421,176.410
0.434,36.807,2.261,2.261,182.995,152.384,176.446
0.436,36.895,2.243,2.243,183.047,152.317,176.469
0.437,37.032,2.234,2.234,183.138,152.215,176.470
0.438,37.234,2.230,2.230,183.276,152.070,176.438
0.440,37.497,2.231,2.231,183.456,151.890,176.376
0.441,37.805,2.235,2.235,183.669,151.683,176.293
0.443,38.142,2.241,2.241,183.904,151.462,176.195
0.444,38.493,2.246,2.246,184.153,151.237,176.093
0.445,38.840,2.250,2.250,184.406,151.020,175.993
0.447,39.169,2.253,2.253,184.652,150.822,175.904
0.448,39.463,2.254,2.254,184.883,150.653,175.835
0.450,39.708,2.255,2.255,185.088,150.525,175.793
0.451,39.895,2.256,2.256,185.258,150.448,175.786
0.452,40.033,2.258,2.258,185.389,150.417,175.809
0.454,40.135,2.262,2.262,185.483,150.421,175.850
0.455,40.212,2.267,2.267,185.540,150.445,175.897
0.456,40.266,2.275,2.275,185.559,150.477,175.936
0.458,40.303,2.283,2.283,185.542,150.503,175.955
0.459,40.358,2.289,2.289,185.489,150.510,175.941
0.461,40.467,2.292,2.292,185.400,150.485,175.883
0.462,40.651,2.290,2.290,185.277,150.416,175.766
0.463,40.926,2.281,2.281,185.119,150.289,175.579
0.465,41.289,2.264,2.264,184.932,150.107,175.327
0.466,41.719,2.237,2.237,184.726,149.883,175.023
0.467,42.195,2.205,2.205,184.510,149.631,174.682
0.469,42.695,2.170,2.170,184.293,149.365,174.319
0.470,43.197,2.137,2.137,184.083,149.097,173.949
0.472,43.681,2.109,2.109,183.892,148.841,173.586
0.473,44.124,2.090,2.090,183.726,148.611,173.246
0.474,44.505,2.083,2.083,183.597,148.420,172.942
0.476,44.805,2.093,2.093,183.512,148.281,172.690
0.477,45.026,2.118,2.118,183.471,148.193,172.492
0.479,45.183,2.151,2.151,183.465,148.147,172.342
0.480,45.294,2.190,2.190,183.488,148.132,172.234
0.481,45.379,2.230,2.230,183.529,148.137,172.160
0.483,45.450,2.266,2.266,183.582,148.151,172.115
0.484,45.512,2.293,2.293,183.637,148.165,172.091
0.485,45.562,2.308,2.308,183.687,148.166,172.083
0.487,45.604,2.309,2.309,183.723,148.145,172.084
0.488,45.659,2.297,2.297,183.737,148.092,172.087
0.490,45.748,2.275,2.275,183.727,148.004,172.091
0.491,45.869,2.244,2.244,183.696,147.887,172.097
0.492,46.019,2.208,2.208,183.647,147.746,172.108
0.494,46.190,2.168,2.168,183.584,147.587,172.126
0.495,46.378,2.125,2.125,183.511,147.416,172.151
0.497,46.577,2.083,2.083,183.429,147.238,172.188
0.498,46.781,2.042,2.042,183.344,147.059,172.237
0.499,46.986,2.005,2.005,183.257,146.886,172.301
0.501,47.186,1.974,1.974,183.173,146.722,172.381
0.502,47.381,1.951,1.951,183.093,146.572,172.477
0.503,47.571,1.936,1.936,183.017,146.434,172.583
0.505,47.754,1.934,1.934,182.944,146.309,172.694
0.506,47.927,1.943,1.943,182.875,146.195,172.806
0.508,48.089,1.964,1.964,182.810,146.094,172.913
0.509,48.236,1.992,1.992,182.748,146.003,173.012
0.510,48.366,2.024,2.024,182.690,145.923,173.096
0.512,48.476,2.057,2.057,182.635,145.854,173.161
0.513,48.565,2.087,2.087,182.583,145.794,173.203
0.515,48.637,2.112,2.112,182.535,145.744,173.219
0.516,48.699,2.129,2.129,182.490,145.702,173.216
0.517,48.756,2.136,2.136,182.449,145.667,173.195
0.519,48.814,2.135,2.135,182.413,145.638,173.161
0.520,48.873,2.128,2.128,182.381,145.613,173.118
0.521,48.931,2.116,2.116,182.354,145.592,173.071
0.523,48.988,2.101,2.101,182.333,145.573,173.022
0.524,49.040,2.084,2.084,182.318,145.555,172.976
0.526,49.084,2.067,2.067,182.309,145.537,172.936
0.527,49.121,2.051,2.051,182.305,145.517,172.905
0.528,49.155,2.035,2.035,182.304,145.493,172.882
0.530,49.190,2.019,2.019,182.302,145.462,172.864
0.531,49.231,2.004,2.004,182.299,145.424,172.851
0.533,49.282,1.988,1.988,182.291,145.374,172.843
0.534,49.346,1.972,1.972,182.275,145.312,172.836
0.535,49.429,1.954,1.954,182.249,145.234,172.831
0.537,49.531,1.935,1.935,182.210,145.139,172.827
0.538,49.658,1.916,1.916,182.157,145.024,172.821
0.539,49.809,1.896,1.896,182.088,144.890,172.813
0.541,49.978,1.878,1.878,182.007,144.742,172.804
0.542,50.159,1.861,1.861,181.918,144.585,172.794
0.544,50.346,1.845,1.845,181.824,144.423,172.782
0.545,50.533,1.833,1.833,181.729,144.263,172.769
0.546,50.714,1.824,1.824,181.637,144.108,172.754
0.548,50.883,1.819,1.819,181.550,143.963,172.739
0.549,51.034,1.817,1.817,181.473,143.835,172.722
0.550,51.161,1.817,1.817,181.409,143.727,172.705
0.552,51.261,1.819,1.819,181.359,143.641,172.687
0.553,51.337,1.823,1.823,181.323,143.577,172.670
0.555,51.390,1.827,1.827,181.299,143.531,172.656
0.556,51.424,1.832,1.832,181.287,143.501,172.646
0.557,51.441,1.836,1.836,181.284,143.485,172.642
0.559,51.448,1.840,1.840,181.289,143.481,172.645
0.560,51.466,1.844,1.844,181.302,143.487,172.658
0.562,51.498,1.847,1.847,181.320,143.499,172.680
0.563,51.543,1.849,1.849,181.343,143.516,172.714
0.564,51.597,1.850,1.850,181.368,143.536,172.759
