"T","Distance","Radius","FreeRadius","X","Y","Z"
0.000,0.000,1.511,1.553,-29.701,113.952,173.719
0.002,0.028,1.522,1.552,-29.677,113.963,173.727
0.004,0.056,1.531,1.552,-29.652,113.974,173.735
0.006,0.083,1.540,1.552,-29.628,113.984,173.743
0.008,0.110,1.547,1.552,-29.605,113.993,173.751
0.010,0.135,1.553,1.552,-29.582,114.001,173.758
0.013,0.159,1.556,1.553,-29.560,114.008,173.765
0.015,0.181,1.558,1.555,-29.539,114.013,173.770
0.017,0.202,1.558,1.556,-29.518,114.015,173.775
0.019,0.222,1.558,1.557,-29.499,114.015,173.779
0.021,0.240,1.558,1.558,-29.482,114.013,173.782
0.023,0.257,1.558,1.559,-29.466,114.008,173.783
0.025,0.272,1.559,1.560,-29.452,114.001,173.784
0.027,0.285,1.561,1.562,-29.441,113.994,173.784
0.029,0.294,1.565,1.565,-29.433,113.989,173.784
0.031,0.298,1.570,1.569,-29.429,113.987,173.784
0.033,0.301,1.575,1.574,-29.431,113.990,173.785
0.035,0.312,1.578,1.577,-29.437,113.998,173.787
0.038,0.333,1.575,1.574,-29.450,114.015,173.790
0.040,0.366,1.565,1.564,-29.470,114.040,173.796
0.042,0.411,1.543,1.544,-29.496,114.076,173.803
0.044,0.470,1.512,1.514,-29.531,114.123,173.812
0.046,0.542,1.476,1.479,-29.574,114.179,173.824
0.048,0.623,1.439,1.442,-29.624,114.242,173.836
0.050,0.712,1.406,1.407,-29.683,114.307,173.848
0.052,0.806,1.382,1.377,-29.748,114.373,173.860
0.054,0.903,1.364,1.354,-29.822,114.437,173.869
0.056,1.003,1.352,1.339,-29.903,114.495,173.877
0.058,1.104,1.342,1.331,-29.991,114.544,173.881
0.061,1.207,1.333,1.332,-30.087,114.583,173.882
0.063,1.313,1.322,1.342,-30.190,114.607,173.877
0.065,1.424,1.311,1.358,-30.299,114.615,173.868
0.067,1.540,1.298,1.377,-30.415,114.611,173.853
0.069,1.662,1.286,1.395,-30.535,114.599,173.835
0.071,1.788,1.275,1.410,-30.658,114.582,173.813
0.073,1.916,1.265,1.418,-30.782,114.565,173.789
0.075,2.044,1.257,1.419,-30.907,114.552,173.764
0.077,2.171,1.251,1.413,-31.031,114.547,173.738
0.079,2.296,1.247,1.400,-31.153,114.555,173.711
0.081,2.419,1.246,1.379,-31.271,114.578,173.686
0.084,2.543,1.249,1.353,-31.385,114.622,173.662
0.086,2.671,1.254,1.326,-31.492,114.689,173.640
0.088,2.807,1.263,1.302,-31.595,114.774,173.618
0.090,2.949,1.276,1.287,-31.694,114.874,173.594
0.092,3.097,1.292,1.285,-31.790,114.982,173.565
0.094,3.249,1.310,1.296,-31.886,115.095,173.531
0.096,3.403,1.327,1.314,-31.981,115.208,173.488
0.098,3.557,1.341,1.333,-32.078,115.315,173.435
0.100,3.710,1.349,1.347,-32.177,115.412,173.369
0.102,3.864,1.349,1.351,-32.280,115.494,173.289
0.104,4.022,1.340,1.344,-32.388,115.556,173.192
0.106,4.188,1.326,1.330,-32.501,115.596,173.077
0.109,4.362,1.312,1.314,-32.615,115.619,172.948
0.111,4.544,1.300,1.300,-32.728,115.632,172.806
0.113,4.728,1.293,1.292,-32.834,115.642,172.656
0.115,4.912,1.290,1.289,-32.931,115.655,172.500
0.117,5.093,1.289,1.288,-33.014,115.678,172.341
0.119,5.269,1.286,1.286,-33.080,115.717,172.183
0.121,5.441,1.280,1.280,-33.125,115.781,172.029
0.123,5.617,1.268,1.268,-33.144,115.874,171.882
0.125,5.807,1.259,1.259,-33.135,116.004,171.744
0.127,6.022,1.263,1.263,-33.095,116.175,171.619
0.129,6.264,1.290,1.290,-33.029,116.379,171.506
0.132,6.529,1.350,1.350,-32.942,116.608,171.405
0.134,6.810,1.448,1.448,-32.841,116.854,171.315
0.136,7.098,1.571,1.571,-32.730,117.109,171.237
0.138,7.386,1.703,1.703,-32.616,117.364,171.170
0.140,7.663,1.827,1.827,-32.503,117.611,171.113
0.142,7.921,1.927,1.927,-32.397,117.841,171.067
0.144,8.150,1.995,1.995,-32.305,118.048,171.030
0.146,8.340,2.038,2.038,-32.231,118.221,171.003
0.148,8.487,2.064,2.064,-32.179,118.356,170.984
0.150,8.595,2.081,2.081,-32.146,118.458,170.973
0.152,8.671,2.099,2.099,-32.130,118.533,170.966
0.154,8.724,2.120,2.120,-32.128,118.586,170.961
0.157,8.761,2.145,2.145,-32.136,118.622,170.958
0.159,8.792,2.174,2.174,-32.151,118.648,170.952
0.161,8.822,2.204,2.204,-32.170,118.669,170.943
0.163,8.855,2.236,2.236,-32.190,118.691,170.929
0.165,8.896,2.269,2.269,-32.208,118.720,170.906
0.167,8.950,2.305,2.305,-32.220,118.762,170.874
0.169,9.022,2.343,2.343,-32.226,118.819,170.830
0.171,9.110,2.385,2.385,-32.224,118.889,170.777
0.173,9.212,2.432,2.432,-32.218,118.969,170.714
0.175,9.322,2.481,2.481,-32.207,119.054,170.645
0.177,9.439,2.533,2.533,-32.193,119.142,170.569
0.180,9.558,2.585,2.585,-32.177,119.228,170.488
0.182,9.676,2.636,2.636,-32.160,119.309,170.404
0.184,9.790,2.685,2.685,-32.143,119.382,170.318
0.186,9.897,2.730,2.730,-32.128,119.442,170.231
0.188,9.995,2.771,2.771,-32.115,119.486,170.144
0.190,10.085,2.806,2.806,-32.106,119.513,170.059
0.192,10.169,2.834,2.834,-32.098,119.524,169.976
0.194,10.249,2.855,2.855,-32.093,119.523,169.896
0.196,10.326,2.869,2.869,-32.087,119.512,169.820
0.198,10.401,2.878,2.878,-32.082,119.496,169.747
0.200,10.473,2.885,2.885,-32.076,119.476,169.679
0.203,10.539,2.889,2.889,-32.068,119.456,169.616
0.205,10.601,2.893,2.893,-32.057,119.438,169.558
0.207,10.655,2.896,2.896,-32.042,119.427,169.507
0.209,10.704,2.898,2.898,-32.022,119.424,169.462
0.211,10.750,2.901,2.901,-31.998,119.431,169.424
0.213,10.798,2.903,2.903,-31.967,119.449,169.392
0.215,10.851,2.904,2.904,-31.929,119.474,169.364
0.217,10.912,2.905,2.905,-31.884,119.507,169.341
0.219,10.981,2.903,2.903,-31.830,119.545,169.319
0.221,11.060,2.899,2.899,-31.767,119.588,169.300
0.223,11.148,2.891,2.891,-31.695,119.635,169.281
0.225,11.246,2.881,2.881,-31.612,119.683,169.261
0.228,11.355,2.867,2.867,-31.517,119.733,169.240
0.230,11.475,2.851,2.851,-31.411,119.782,169.216
0.232,11.605,2.834,2.834,-31.292,119.830,169.188
0.234,11.745,2.815,2.815,-31.165,119.876,169.157
0.236,11.891,2.797,2.797,-31.030,119.921,169.122
0.238,12.041,2.782,2.782,-30.891,119.965,169.084
0.240,12.194,2.774,2.774,-30.751,120.008,169.041
0.242,12.346,2.775,2.775,-30.612,120.049,168.996
0.244,12.497,2.787,2.787,-30.476,120.089,168.946
0.246,12.642,2.808,2.808,-30.346,120.128,168.893
0.248,12.781,2.834,2.834,-30.225,120.165,168.836
0.251,12.912,2.862,2.862,-30.115,120.201,168.775
0.253,13.034,2.888,2.888,-30.018,120.236,168.710
0.255,13.149,2.909,2.909,-29.931,120.269,168.642
0.257,13.259,2.926,2.926,-29.854,120.300,168.570
0.259,13.366,2.942,2.942,-29.782,120.328,168.495
0.261,13.472,2.958,2.958,-29.716,120.353,168.416
0.263,13.578,2.978,2.978,-29.653,120.373,168.334
0.265,13.685,3.002,3.002,-29.590,120.390,168.249
0.267,13.794,3.028,3.028,-29.526,120.401,168.161
0.269,13.908,3.056,3.056,-29.459,120.408,168.069
0.271,14.026,3.083,3.083,-29.387,120.408,167.975
0.273,14.151,3.108,3.108,-29.308,120.403,167.878
0.276,14.281,3.131,3.131,-29.223,120.394,167.780
0.278,14.416,3.151,3.151,-29.132,120.382,167.682
0.280,14.554,3.171,3.171,-29.035,120.370,167.585
0.282,14.693,3.191,3.191,-28.933,120.358,167.490
0.284,14.835,3.212,3.212,-28.826,120.350,167.398
0.286,14.977,3.235,3.235,-28.715,120.345,167.311
0.288,15.119,3.259,3.259,-28.598,120.346,167.229
0.290,15.261,3.286,3.286,-28.478,120.355,167.154
0.292,15.403,3.315,3.315,-28.354,120.373,167.088
0.294,15.545,3.346,3.346,-28.227,120.401,167.030
0.296,15.686,3.380,3.380,-28.099,120.436,166.980
0.299,15.825,3.417,3.417,-27.973,120.476,166.938
0.301,15.959,3.459,3.459,-27.851,120.520,166.904
0.303,16.086,3.504,3.504,-27.735,120.564,166.877
0.305,16.204,3.555,3.555,-27.627,120.607,166.856
0.307,16.310,3.606,3.606,-27.530,120.647,166.841
0.309,16.401,3.654,3.654,-27.446,120.680,166.832
0.311,16.474,3.695,3.695,-27.377,120.705,166.828
0.313,16.528,3.723,3.723,-27.326,120.720,166.829
0.315,16.563,3.736,3.736,-27.292,120.725,166.834
0.317,16.584,3.738,3.738,-27.271,120.722,166.839
0.319,16.598,3.734,3.734,-27.260,120.715,166.842
0.322,16.608,3.729,3.729,-27.254,120.707,166.840
0.324,16.620,3.728,3.728,-27.249,120.702,166.830
0.326,16.642,3.734,3.734,-27.241,120.703,166.809
0.328,16.681,3.746,3.746,-27.226,120.713,166.775
0.330,16.743,3.764,3.764,-27.199,120.736,166.724
0.332,16.833,3.785,3.785,-27.156,120.774,166.654
0.334,16.959,3.807,3.807,-27.094,120.832,166.562
0.336,17.120,3.831,3.831,-27.011,120.910,166.448
0.338,17.309,3.860,3.860,-26.910,121.004,166.318
0.340,17.518,3.897,3.897,-26.797,121.109,166.177
0.342,17.740,3.946,3.946,-26.675,121.222,166.031
0.344,17.965,4.011,4.011,-26.548,121.338,165.886
0.347,18.185,4.087,4.087,-26.421,121.453,165.747
0.349,18.393,4.161,4.161,-26.297,121.562,165.621
0.351,18.580,4.222,4.222,-26.180,121.661,165.513
0.353,18.740,4.258,4.258,-26.075,121.746,165.428
0.355,18.864,4.257,4.257,-25.986,121.813,165.373
0.357,18.952,4.225,4.225,-25.916,121.860,165.348
0.359,19.013,4.177,4.177,-25.863,121.890,165.346
0.361,19.053,4.129,4.129,-25.828,121.904,165.360
0.363,19.080,4.098,4.098,-25.811,121.907,165.381
0.365,19.103,4.097,4.097,-25.812,121.900,165.402
0.367,19.129,4.120,4.120,-25.829,121.886,165.416
0.370,19.168,4.155,4.155,-25.864,121.868,165.416
0.372,19.228,4.187,4.187,-25.915,121.848,165.392
0.374,19.316,4.203,4.203,-25.983,121.829,165.339
0.376,19.441,4.194,4.194,-26.067,121.815,165.248
0.378,19.604,4.164,4.164,-26.166,121.805,165.118
0.380,19.801,4.120,4.120,-26.277,121.800,164.956
0.382,20.023,4.073,4.073,-26.397,121.800,164.769
0.384,20.263,4.028,4.028,-26.524,121.805,164.565
0.386,20.514,3.993,3.993,-26.654,121.812,164.351
0.388,20.768,3.965,3.965,-26.786,121.824,164.134
0.390,21.016,3.939,3.939,-26.915,121.838,163.923
0.392,21.251,3.911,3.911,-27.040,121.855,163.724
0.395,21.466,3.879,3.879,-27.157,121.874,163.545
0.397,21.652,3.841,3.841,-27.264,121.895,163.394
0.399,21.808,3.800,3.800,-27.358,121.917,163.272
0.401,21.937,3.762,3.762,-27.442,121.941,163.177
0.403,22.042,3.729,3.729,-27.514,121.965,163.104
0.405,22.128,3.706,3.706,-27.575,121.989,163.049
0.407,22.197,3.693,3.693,-27.626,122.013,163.009
0.409,22.253,3.687,3.687,-27.668,122.037,162.980
0.411,22.298,3.686,3.686,-27.700,122.059,162.957
0.413,22.335,3.685,3.685,-27.723,122.079,162.937
0.415,22.368,3.683,3.683,-27.738,122.098,162.915
0.418,22.400,3.677,3.677,-27.745,122.114,162.888
0.420,22.437,3.671,3.671,-27.744,122.129,162.854
0.422,22.482,3.665,3.665,-27.737,122.142,162.812
0.424,22.535,3.662,3.662,-27.723,122.156,162.762
0.426,22.596,3.661,3.661,-27.704,122.171,162.706
0.428,22.667,3.663,3.663,-27.680,122.190,162.642
0.430,22.747,3.663,3.663,-27.651,122.213,162.571
0.432,22.836,3.658,3.658,-27.619,122.241,162.493
0.434,22.934,3.647,3.647,-27.584,122.277,162.408
0.436,23.042,3.626,3.626,-27.547,122.320,162.316
0.438,23.161,3.598,3.598,-27.508,122.373,162.218
0.441,23.289,3.568,3.568,-27.468,122.435,162.113
0.443,23.424,3.539,3.539,-27.428,122.503,162.004
0.445,23.562,3.514,3.514,-27.390,122.577,161.893
0.447,23.702,3.498,3.498,-27.354,122.653,161.781
0.449,23.841,3.487,3.487,-27.323,122.729,161.669
0.451,23.975,3.479,3.479,-27.297,122.803,161.561
0.453,24.102,3.472,3.472,-27.277,122.873,161.456
0.455,24.220,3.463,3.463,-27.265,122.937,161.358
0.457,24.326,3.452,3.452,-27.262,122.992,161.267
0.459,24.419,3.436,3.436,-27.268,123.036,161.186
0.461,24.500,3.416,3.416,-27.285,123.069,161.114
0.463,24.573,3.392,3.392,-27.311,123.093,161.050
0.466,24.643,3.362,3.362,-27.345,123.110,160.991
0.468,24.712,3.329,3.329,-27.386,123.123,160.937
0.470,24.783,3.295,3.295,-27.432,123.134,160.885
0.472,24.856,3.260,3.260,-27.484,123.145,160.834
0.474,24.933,3.229,3.229,-27.539,123.158,160.781
0.476,25.016,3.204,3.204,-27.596,123.176,160.725
0.478,25.104,3.183,3.183,-27.655,123.200,160.664
0.480,25.200,3.166,3.166,-27.715,123.233,160.597
0.482,25.304,3.150,3.150,-27.774,123.275,160.522
0.484,25.416,3.133,3.133,-27.833,123.325,160.441
0.486,25.535,3.113,3.113,-27.891,123.381,160.354
0.489,25.659,3.090,3.090,-27.949,123.442,160.262
0.491,25.787,3.062,3.062,-28.007,123.505,160.166
0.493,25.918,3.029,3.029,-28.064,123.570,160.068
0.495,26.050,2.989,2.989,-28.120,123.634,159.967
0.497,26.182,2.944,2.944,-28.176,123.696,159.865
0.499,26.312,2.895,2.895,-28.231,123.755,159.763
0.501,26.439,2.847,2.847,-28.285,123.809,159.661
0.503,26.562,2.803,2.803,-28.338,123.857,159.561
0.505,26.680,2.768,2.768,-28.388,123.900,159.464
0.507,26.791,2.744,2.744,-28.435,123.937,159.370
0.509,26.894,2.728,2.728,-28.478,123.969,159.283
0.511,26.988,2.719,2.719,-28.516,123.997,159.202
0.514,27.071,2.714,2.714,-28.548,124.021,159.129
0.516,27.141,2.711,2.711,-28.573,124.040,159.065
0.518,27.199,2.707,2.707,-28.589,124.056,159.012
0.520,27.242,2.702,2.702,-28.597,124.068,158.971
0.522,27.272,2.698,2.698,-28.595,124.076,158.944
0.524,27.291,2.694,2.694,-28.585,124.082,158.928
0.526,27.308,2.690,2.690,-28.569,124.085,158.923
0.528,27.326,2.688,2.688,-28.550,124.087,158.925
0.530,27.345,2.686,2.686,-28.533,124.086,158.933
0.532,27.361,2.685,2.685,-28.521,124.085,158.942
0.534,27.372,2.685,2.685,-28.516,124.082,158.952
0.537,27.382,2.686,2.686,-28.522,124.080,158.959
0.539,27.402,2.686,2.686,-28.542,124.077,158.961
0.541,27.440,2.684,2.684,-28.579,124.075,158.956
0.543,27.500,2.678,2.678,-28.637,124.074,158.940
0.545,27.581,2.665,2.665,-28.714,124.073,158.914
0.547,27.680,2.644,2.644,-28.807,124.073,158.880
0.549,27.791,2.614,2.614,-28.911,124.074,158.840
0.551,27.911,2.576,2.576,-29.021,124.074,158.795
0.553,28.033,2.532,2.532,-29.134,124.073,158.749
0.555,28.153,2.483,2.483,-29.245,124.072,158.702
0.557,28.267,2.429,2.429,-29.349,124.070,158.657
0.559,28.369,2.375,2.375,-29.443,124.066,158.616
0.562,28.455,2.322,2.322,-29.522,124.060,158.581
0.564,28.521,2.274,2.274,-29.581,124.052,158.553
0.566,28.568,2.233,2.233,-29.622,124.043,158.534
0.568,28.599,2.203,2.203,-29.649,124.035,158.520
0.570,28.621,2.182,2.182,-29.667,124.029,158.509
0.572,28.637,2.170,2.170,-29.681,124.030,158.501
0.574,28.655,2.166,2.166,-29.695,124.038,158.492
0.576,28.684,2.170,2.170,-29.714,124.055,158.481
0.578,28.728,2.178,2.178,-29.744,124.085,158.467
0.580,28.794,2.185,2.185,-29.788,124.129,158.446
0.582,28.886,2.185,2.185,-29.852,124.189,158.417
0.585,29.010,2.172,2.172,-29.940,124.268,158.378
0.587,29.166,2.138,2.138,-30.052,124.364,158.328
0.589,29.348,2.086,2.086,-30.184,124.475,158.269
0.591,29.552,2.026,2.026,-30.331,124.597,158.200
0.593,29.772,1.971,1.971,-30.490,124.728,158.123
0.595,30.004,1.934,1.934,-30.657,124.864,158.037
0.597,30.242,1.926,1.926,-30.827,125.002,157.943
0.599,30.483,1.947,1.947,-30.997,125.140,157.842
0.601,30.721,1.985,1.985,-31.162,125.274,157.734
0.603,30.952,2.031,2.031,-31.318,125.400,157.619
0.605,31.173,2.071,2.071,-31.461,125.518,157.500
0.608,31.381,2.097,2.097,-31.590,125.624,157.376
0.610,31.577,2.107,2.107,-31.706,125.720,157.251
0.612,31.760,2.108,2.108,-31.809,125.807,157.126
0.614,31.930,2.104,2.104,-31.900,125.885,157.005
0.616,32.086,2.102,2.102,-31.979,125.955,156.890
0.618,32.228,2.106,2.106,-32.048,126.017,156.784
0.620,32.353,2.116,2.116,-32.106,126.073,156.688
0.622,32.461,2.131,2.131,-32.155,126.122,156.605
0.624,32.551,2.148,2.148,-32.195,126.166,156.538
0.626,32.622,2.165,2.165,-32.227,126.206,156.489
0.628,32.676,2.181,2.181,-32.252,126.241,156.456
0.630,32.718,2.195,2.195,-32.271,126.273,156.436
0.633,32.754,2.207,2.207,-32.284,126.304,156.424
0.635,32.785,2.217,2.217,-32.294,126.333,156.416
0.637,32.816,2.224,2.224,-32.301,126.362,156.409
0.639,32.848,2.230,2.230,-32.306,126.392,156.398
0.641,32.885,2.233,2.233,-32.310,126.423,156.379
0.643,32.932,2.233,2.233,-32.315,126.457,156.347
0.645,32.993,2.229,2.229,-32.321,126.495,156.300
0.647,33.072,2.221,2.221,-32.329,126.537,156.233
0.649,33.171,2.211,2.211,-32.341,126.584,156.147
0.651,33.286,2.203,2.203,-32.356,126.636,156.045
0.653,33.415,2.201,2.201,-32.375,126.690,155.930
0.656,33.554,2.212,2.212,-32.398,126.749,155.806
0.658,33.700,2.239,2.239,-32.426,126.810,155.677
0.660,33.850,2.281,2.281,-32.459,126.873,155.545
0.662,34.000,2.331,2.331,-32.498,126.939,155.415
0.664,34.150,2.380,2.380,-32.542,127.006,155.289
0.666,34.295,2.423,2.423,-32.593,127.075,155.172
0.668,34.434,2.452,2.452,-32.651,127.144,155.066
0.670,34.566,2.467,2.467,-32.714,127.212,154.972
0.672,34.690,2.473,2.473,-32.780,127.277,154.889
0.674,34.806,2.474,2.474,-32.848,127.336,154.817
0.676,34.912,2.475,2.475,-32.916,127.388,154.755
0.678,35.006,2.481,2.481,-32.982,127.430,154.702
0.681,35.088,2.488,2.488,-33.043,127.461,154.657
0.683,35.156,2.492,2.492,-33.097,127.477,154.619
0.685,35.212,2.488,2.488,-33.144,127.476,154.587
0.687,35.260,2.471,2.471,-33.180,127.457,154.562
0.689,35.311,2.440,2.440,-33.204,127.418,154.541
0.691,35.370,2.400,2.400,-33.217,127.363,154.524
0.693,35.432,2.362,2.362,-33.222,127.303,154.511
0.695,35.489,2.335,2.335,-33.221,127.246,154.501
0.697,35.534,2.329,2.329,-33.218,127.202,154.495
0.699,35.556,2.346,2.346,-33.215,127.180,154.490
0.701,35.566,2.374,2.374,-33.215,127.191,154.488
0.704,35.618,2.397,2.397,-33.220,127.242,154.487
0.706,35.720,2.397,2.397,-33.234,127.343,154.487
0.708,35.883,2.360,2.360,-33.259,127.504,154.487
0.710,36.115,2.283,2.283,-33.298,127.733,154.487
0.712,36.410,2.187,2.187,-33.350,128.023,154.488
0.714,36.755,2.092,2.092,-33.411,128.363,154.488
0.716,37.136,2.022,2.022,-33.480,128.737,154.487
0.718,37.538,1.998,1.998,-33.554,129.133,154.485
0.720,37.948,2.026,2.026,-33.629,129.536,154.483
0.722,38.352,2.092,2.092,-33.704,129.933,154.480
0.724,38.737,2.183,2.183,-33.775,130.311,154.475
0.727,39.087,2.288,2.288,-33.840,130.655,154.469
0.729,39.390,2.392,2.392,-33.896,130.953,154.461
0.731,39.633,2.488,2.488,-33.940,131.191,154.452
0.733,39.817,2.572,2.572,-33.975,131.372,154.441
0.735,39.951,2.641,2.641,-34.003,131.502,154.432
0.737,40.043,2.691,2.691,-34.028,131.590,154.425
0.739,40.103,2.718,2.718,-34.054,131.645,154.422
0.741,40.145,2.726,2.726,-34.084,131.673,154.424
0.743,40.185,2.723,2.723,-34.122,131.684,154.432
0.745,40.237,2.713,2.713,-34.171,131.685,154.449
0.747,40.306,2.706,2.706,-34.235,131.684,154.476
0.749,40.398,2.705,2.705,-34.318,131.690,154.514
0.752,40.515,2.713,2.713,-34.422,131.710,154.564
0.754,40.659,2.731,2.731,-34.548,131.745,154.624
0.756,40.827,2.761,2.761,-34.695,131.792,154.690
0.758,41.016,2.803,2.803,-34.862,131.850,154.757
0.760,41.223,2.856,2.856,-35.048,131.915,154.822
0.762,41.446,2.915,2.915,-35.251,131.986,154.879
0.764,41.682,2.974,2.974,-35.470,132.061,154.926
0.766,41.930,3.025,3.025,-35.704,132.137,154.956
0.768,42.190,3.064,3.064,-35.953,132.212,154.967
0.770,42.461,3.088,3.088,-36.214,132.283,154.954
0.772,42.745,3.104,3.104,-36.487,132.349,154.913
0.775,43.039,3.120,3.120,-36.767,132.409,154.845
0.777,43.342,3.145,3.145,-37.050,132.464,154.753
0.779,43.647,3.185,3.185,-37.330,132.513,154.640
0.781,43.952,3.242,3.242,-37.602,132.558,154.509
0.783,44.252,3.308,3.308,-37.860,132.599,154.364
0.785,44.542,3.375,3.375,-38.101,132.637,154.206
0.787,44.818,3.435,3.435,-38.318,132.671,154.039
0.789,45.075,3.479,3.479,-38.506,132.703,153.867
0.791,45.311,3.507,3.507,-38.660,132.733,153.691
0.793,45.524,3.518,3.518,-38.776,132.761,153.515
0.795,45.719,3.516,3.516,-38.857,132.785,153.338
0.797,45.906,3.501,3.501,-38.909,132.803,153.160
0.800,46.091,3.475,3.475,-38.938,132.811,152.978
0.802,46.279,3.438,3.438,-38.951,132.807,152.790
0.804,46.473,3.391,3.391,-38.953,132.788,152.596
0.806,46.679,3.334,3.334,-38.951,132.751,152.394
0.808,46.898,3.267,3.267,-38.951,132.693,152.183
0.810,47.135,3.190,3.190,-38.959,132.612,151.960
0.812,47.395,3.111,3.111,-38.981,132.504,151.725
0.814,47.682,3.036,3.036,-39.023,132.368,151.476
0.816,47.994,2.972,2.972,-39.085,132.207,151.216
0.818,48.326,2.929,2.929,-39.162,132.026,150.948
0.820,48.672,2.910,2.910,-39.252,131.832,150.676
0.823,49.026,2.918,2.918,-39.352,131.629,150.404
0.825,49.380,2.953,2.953,-39.458,131.424,150.135
0.827,49.728,3.014,3.014,-39.568,131.222,149.874
0.829,50.064,3.102,3.102,-39.679,131.028,149.623
0.831,50.379,3.214,3.214,-39.786,130.849,149.388
0.833,50.667,3.338,3.338,-39.888,130.690,149.170
0.835,50.922,3.464,3.464,-39.981,130.555,148.974
0.837,51.146,3.580,3.580,-40.066,130.446,148.799
0.839,51.340,3.674,3.674,-40.145,130.360,148.643
0.841,51.510,3.744,3.744,-40.220,130.296,148.505
0.843,51.659,3.797,3.797,-40.291,130.251,148.382
0.846,51.791,3.838,3.838,-40.361,130.224,148.273
0.848,51.912,3.876,3.876,-40.432,130.214,148.176
0.850,52.026,3.917,3.917,-40.506,130.218,148.089
0.852,52.139,3.962,3.962,-40.584,130.235,148.010
