"T","Distance","Radius","FreeRadius","X","Y","Z"
0.000,0.000,1.819,1.819,217.238,189.054,191.401
0.001,0.059,1.846,1.846,217.211,189.003,191.389
0.002,0.117,1.874,1.873,217.185,188.953,191.377
0.004,0.173,1.901,1.900,217.160,188.904,191.365
0.005,0.227,1.928,1.927,217.136,188.858,191.353
0.006,0.277,1.955,1.954,217.114,188.815,191.340
0.007,0.323,1.981,1.980,217.094,188.775,191.326
0.008,0.365,2.008,2.007,217.078,188.740,191.311
0.009,0.401,2.033,2.033,217.064,188.710,191.295
0.011,0.432,2.059,2.059,217.055,188.687,191.277
0.012,0.457,2.084,2.085,217.050,188.670,191.258
0.013,0.480,2.108,2.110,217.049,188.661,191.238
0.014,0.504,2.131,2.134,217.053,188.659,191.214
0.015,0.533,2.153,2.157,217.061,188.664,191.187
0.017,0.568,2.174,2.178,217.072,188.675,191.155
0.018,0.612,2.193,2.197,217.087,188.692,191.118
0.019,0.664,2.212,2.214,217.105,188.716,191.074
0.020,0.726,2.228,2.228,217.125,188.746,191.024
0.021,0.799,2.243,2.239,217.147,188.781,190.965
0.023,0.882,2.256,2.249,217.172,188.821,190.896
0.024,0.976,2.269,2.259,217.198,188.867,190.818
0.025,1.078,2.282,2.269,217.226,188.914,190.732
0.026,1.185,2.296,2.281,217.256,188.957,190.639
0.027,1.292,2.312,2.297,217.290,188.990,190.543
0.028,1.397,2.329,2.318,217.327,189.009,190.447
0.030,1.499,2.350,2.344,217.369,189.008,190.353
0.031,1.603,2.373,2.378,217.415,188.981,190.265
0.032,1.715,2.401,2.420,217.467,188.923,190.184
0.033,1.847,2.432,2.468,217.525,188.828,190.113
0.034,2.009,2.468,2.522,217.589,188.690,190.056
0.036,2.209,2.509,2.580,217.660,188.508,190.015
0.037,2.445,2.554,2.641,217.737,188.286,189.988
0.038,2.708,2.604,2.704,217.817,188.037,189.973
0.039,2.988,2.659,2.768,217.897,187.769,189.968
0.040,3.275,2.720,2.832,217.977,187.492,189.971
0.042,3.560,2.786,2.895,218.053,187.218,189.980
0.043,3.832,2.855,2.956,218.124,186.956,189.993
0.044,4.080,2.926,3.015,218.188,186.716,190.007
0.045,4.295,2.996,3.069,218.242,186.508,190.022
0.046,4.466,3.063,3.118,218.284,186.343,190.033
0.047,4.588,3.124,3.162,218.313,186.225,190.042
0.049,4.667,3.177,3.199,218.331,186.149,190.048
0.050,4.711,3.221,3.228,218.340,186.105,190.052
0.051,4.729,3.253,3.249,218.341,186.089,190.057
0.052,4.737,3.272,3.261,218.336,186.091,190.064
0.053,4.756,3.281,3.267,218.327,186.105,190.074
0.055,4.782,3.282,3.267,218.316,186.124,190.088
0.056,4.809,3.276,3.262,218.305,186.139,190.107
0.057,4.838,3.265,3.254,218.295,186.144,190.134
0.058,4.875,3.252,3.245,218.288,186.132,190.168
0.059,4.928,3.239,3.235,218.284,186.101,190.211
0.060,4.996,3.227,3.227,218.282,186.055,190.261
0.062,5.077,3.218,3.220,218.280,185.997,190.317
0.063,5.166,3.212,3.216,218.277,185.932,190.378
0.064,5.262,3.208,3.212,218.271,185.863,190.443
0.065,5.359,3.206,3.210,218.260,185.793,190.511
0.066,5.456,3.205,3.208,218.244,185.727,190.580
0.068,5.551,3.203,3.206,218.221,185.668,190.650
0.069,5.641,3.201,3.203,218.189,185.620,190.720
0.070,5.728,3.198,3.198,218.148,185.586,190.788
0.071,5.814,3.192,3.192,218.098,185.565,190.856
0.072,5.901,3.184,3.183,218.045,185.554,190.924
0.074,5.990,3.172,3.171,217.992,185.551,190.995
0.075,6.081,3.157,3.156,217.941,185.552,191.070
0.076,6.173,3.139,3.138,217.896,185.556,191.151
0.077,6.267,3.116,3.115,217.861,185.559,191.238
0.078,6.365,3.089,3.089,217.839,185.559,191.333
0.079,6.471,3.058,3.058,217.833,185.553,191.439
0.081,6.589,3.022,3.022,217.847,185.539,191.555
0.082,6.725,2.981,2.981,217.883,185.515,191.684
0.083,6.877,2.935,2.936,217.936,185.483,191.822
0.084,7.042,2.887,2.887,218.004,185.446,191.969
0.085,7.217,2.836,2.836,218.083,185.405,192.120
0.087,7.399,2.784,2.784,218.168,185.364,192.275
0.088,7.582,2.731,2.731,218.255,185.324,192.430
0.089,7.763,2.680,2.680,218.342,185.288,192.585
0.090,7.937,2.630,2.630,218.424,185.258,192.736
0.091,8.101,2.583,2.583,218.498,185.236,192.881
0.093,8.251,2.540,2.540,218.559,185.226,193.018
0.094,8.388,2.501,2.501,218.606,185.226,193.146
0.095,8.513,2.466,2.466,218.642,185.236,193.265
0.096,8.628,2.437,2.437,218.667,185.254,193.376
0.097,8.735,2.412,2.412,218.683,185.277,193.479
0.098,8.834,2.393,2.393,218.693,185.304,193.574
0.100,8.926,2.380,2.380,218.697,185.334,193.661
0.101,9.011,2.373,2.373,218.698,185.363,193.741
0.102,9.090,2.372,2.372,218.698,185.391,193.814
0.103,9.160,2.376,2.376,218.696,185.416,193.880
0.104,9.223,2.381,2.381,218.697,185.435,193.940
0.106,9.282,2.385,2.386,218.698,185.449,193.997
0.107,9.341,2.386,2.386,218.701,185.458,194.056
0.108,9.406,2.379,2.379,218.705,185.463,194.120
0.109,9.480,2.363,2.363,218.708,185.462,194.194
0.110,9.569,2.335,2.335,218.712,185.457,194.283
0.112,9.676,2.292,2.292,218.715,185.449,194.390
0.113,9.807,2.233,2.233,218.716,185.436,194.520
0.114,9.966,2.162,2.162,218.716,185.421,194.678
0.115,10.156,2.081,2.081,218.714,185.402,194.868
0.116,10.380,1.995,1.995,218.709,185.379,195.090
0.117,10.626,1.907,1.907,218.699,185.350,195.334
0.119,10.886,1.819,1.819,218.681,185.312,195.590
0.120,11.148,1.736,1.736,218.653,185.260,195.846
0.121,11.404,1.661,1.661,218.611,185.191,196.089
0.122,11.647,1.596,1.596,218.554,185.103,196.308
0.123,11.875,1.543,1.543,218.479,184.992,196.492
0.125,12.091,1.503,1.503,218.383,184.854,196.629
0.126,12.311,1.474,1.474,218.264,184.687,196.707
0.127,12.558,1.457,1.457,218.119,184.487,196.715
0.128,12.852,1.453,1.453,217.950,184.256,196.652
0.129,13.190,1.461,1.461,217.763,184.002,196.530
0.130,13.563,1.482,1.482,217.565,183.734,196.361
0.132,13.957,1.515,1.515,217.363,183.462,196.160
0.133,14.359,1.560,1.560,217.163,183.192,195.939
0.134,14.752,1.614,1.614,216.974,182.936,195.710
0.135,15.119,1.674,1.674,216.801,182.700,195.487
0.136,15.446,1.737,1.737,216.651,182.494,195.283
0.138,15.714,1.800,1.800,216.531,182.326,195.111
0.139,15.910,1.861,1.861,216.447,182.205,194.982
0.140,16.035,1.915,1.915,216.398,182.129,194.896
0.141,16.102,1.961,1.961,216.376,182.089,194.847
0.142,16.124,1.996,1.996,216.376,182.080,194.827
0.144,16.144,2.020,2.020,216.391,182.093,194.830
0.145,16.187,2.036,2.036,216.415,182.122,194.849
0.146,16.241,2.044,2.044,216.442,182.159,194.878
0.147,16.295,2.048,2.048,216.464,182.198,194.909
0.148,16.339,2.050,2.050,216.477,182.231,194.936
0.149,16.365,2.050,2.050,216.472,182.250,194.952
0.151,16.390,2.052,2.052,216.447,182.251,194.951
0.152,16.439,2.056,2.056,216.403,182.236,194.936
0.153,16.508,2.065,2.065,216.345,182.207,194.910
0.154,16.594,2.078,2.078,216.277,182.170,194.874
0.155,16.688,2.093,2.093,216.203,182.128,194.832
0.157,16.787,2.110,2.110,216.128,182.084,194.787
0.158,16.882,2.127,2.127,216.055,182.042,194.742
0.159,16.969,2.145,2.145,215.989,182.006,194.699
0.160,17.040,2.163,2.163,215.934,181.980,194.662
0.161,17.091,2.178,2.178,215.895,181.966,194.633
0.163,17.122,2.192,2.192,215.871,181.966,194.613
0.164,17.140,2.202,2.202,215.859,181.976,194.605
0.165,17.156,2.209,2.209,215.853,181.992,194.607
0.166,17.178,2.212,2.212,215.850,182.009,194.621
0.167,17.208,2.210,2.210,215.845,182.023,194.647
0.168,17.248,2.203,2.203,215.832,182.029,194.684
0.170,17.303,2.191,2.191,215.808,182.024,194.734
0.171,17.381,2.173,2.173,215.766,182.003,194.796
0.172,17.487,2.149,2.149,215.704,181.962,194.871
0.173,17.628,2.118,2.118,215.616,181.897,194.960
0.174,17.801,2.082,2.082,215.505,181.809,195.059
0.176,17.999,2.043,2.043,215.377,181.703,195.166
0.177,18.212,2.001,2.001,215.238,181.585,195.277
0.178,18.431,1.958,1.958,215.096,181.459,195.387
0.179,18.649,1.916,1.916,214.956,181.331,195.494
0.180,18.856,1.875,1.875,214.826,181.205,195.593
0.181,19.043,1.837,1.837,214.711,181.086,195.680
0.183,19.202,1.804,1.804,214.618,180.979,195.753
0.184,19.324,1.776,1.776,214.555,180.889,195.807
0.185,19.406,1.753,1.753,214.524,180.821,195.839
0.186,19.456,1.736,1.736,214.520,180.773,195.853
0.187,19.491,1.724,1.724,214.536,180.741,195.853
0.189,19.524,1.718,1.718,214.563,180.724,195.843
0.190,19.558,1.718,1.718,214.592,180.719,195.827
0.191,19.588,1.724,1.724,214.616,180.723,195.810
0.192,19.608,1.736,1.736,214.626,180.734,195.796
0.193,19.628,1.755,1.755,214.614,180.748,195.789
0.195,19.673,1.777,1.777,214.571,180.763,195.794
0.196,19.758,1.803,1.803,214.490,180.777,195.814
0.197,19.887,1.830,1.830,214.367,180.787,195.852
0.198,20.053,1.857,1.857,214.210,180.794,195.906
0.199,20.250,1.881,1.881,214.025,180.800,195.973
0.200,20.469,1.902,1.902,213.820,180.803,196.049
0.202,20.701,1.918,1.918,213.603,180.806,196.133
0.203,20.941,1.928,1.928,213.381,180.808,196.222
0.204,21.178,1.930,1.930,213.161,180.811,196.312
0.205,21.405,1.928,1.928,212.952,180.814,196.401
0.206,21.615,1.922,1.922,212.761,180.819,196.487
0.208,21.800,1.913,1.913,212.594,180.825,196.567
0.209,21.958,1.903,1.903,212.452,180.832,196.636
0.210,22.093,1.893,1.893,212.330,180.837,196.692
0.211,22.209,1.884,1.884,212.221,180.838,196.731
0.212,22.311,1.878,1.878,212.120,180.832,196.749
0.214,22.412,1.875,1.875,212.021,180.816,196.742
0.215,22.524,1.875,1.875,211.918,180.787,196.707
0.216,22.662,1.880,1.880,211.806,180.743,196.639
0.217,22.837,1.888,1.888,211.679,180.682,196.535
0.218,23.059,1.900,1.900,211.531,180.601,196.392
0.219,23.334,1.917,1.917,211.358,180.497,196.206
0.221,23.654,1.937,1.937,211.163,180.374,195.982
0.222,24.011,1.962,1.962,210.953,180.236,195.729
0.223,24.394,1.991,1.991,210.733,180.087,195.454
0.224,24.791,2.024,2.024,210.511,179.930,195.164
0.225,25.194,2.062,2.062,210.291,179.771,194.866
0.227,25.591,2.103,2.103,210.081,179.613,194.569
0.228,25.972,2.148,2.148,209.886,179.460,194.279
0.229,26.327,2.196,2.196,209.713,179.316,194.004
0.230,26.646,2.248,2.248,209.567,179.186,193.752
0.231,26.923,2.302,2.302,209.453,179.072,193.528
0.233,27.160,2.359,2.359,209.366,178.974,193.330
0.234,27.363,2.418,2.418,209.305,178.889,193.156
0.235,27.534,2.478,2.478,209.264,178.818,193.006
0.236,27.677,2.537,2.537,209.241,178.759,192.877
0.237,27.797,2.594,2.594,209.231,178.711,192.768
0.238,27.896,2.648,2.648,209.231,178.672,192.677
0.240,27.977,2.697,2.697,209.237,178.642,192.602
0.241,28.043,2.739,2.739,209.246,178.619,192.542
0.242,28.094,2.774,2.774,209.255,178.602,192.494
0.243,28.132,2.799,2.799,209.260,178.590,192.458
0.244,28.160,2.815,2.815,209.264,178.583,192.431
0.246,28.180,2.824,2.824,209.266,178.578,192.412
0.247,28.193,2.827,2.827,209.267,178.576,192.400
0.248,28.200,2.826,2.826,209.266,178.574,192.392
0.249,28.206,2.822,2.822,209.266,178.572,192.387
0.250,28.210,2.816,2.816,209.265,178.568,192.384
0.251,28.217,2.810,2.810,209.265,178.562,192.381
0.253,28.228,2.806,2.806,209.265,178.553,192.376
0.254,28.244,2.805,2.805,209.267,178.539,192.369
0.255,28.264,2.805,2.805,209.270,178.522,192.358
0.256,28.288,2.807,2.807,209.273,178.501,192.346
0.257,28.313,2.810,2.810,209.276,178.480,192.333
0.259,28.339,2.813,2.813,209.278,178.458,192.320
0.260,28.362,2.815,2.815,209.280,178.437,192.309
0.261,28.383,2.817,2.817,209.279,178.419,192.300
0.262,28.399,2.817,2.817,209.277,178.404,192.294
0.263,28.411,2.814,2.814,209.273,178.393,192.293
0.265,28.421,2.809,2.809,209.265,178.388,192.298
0.266,28.435,2.803,2.803,209.255,178.389,192.308
0.267,28.453,2.796,2.796,209.242,178.394,192.319
0.268,28.470,2.788,2.788,209.229,178.398,192.329
0.269,28.483,2.780,2.780,209.217,178.400,192.332
0.270,28.496,2.773,2.773,209.206,178.396,192.326
0.272,28.522,2.767,2.767,209.198,178.382,192.305
0.273,28.568,2.763,2.763,209.195,178.357,192.266
0.274,28.641,2.761,2.761,209.197,178.316,192.206
0.275,28.746,2.761,2.761,209.206,178.257,192.119
0.276,28.889,2.760,2.760,209.223,178.177,192.003
0.278,29.068,2.759,2.759,209.248,178.076,191.858
0.279,29.275,2.755,2.755,209.280,177.958,191.690
0.280,29.504,2.749,2.749,209.316,177.828,191.505
0.281,29.746,2.738,2.738,209.355,177.690,191.310
0.282,29.994,2.722,2.722,209.397,177.548,191.111
0.284,30.239,2.700,2.700,209.438,177.408,190.914
0.285,30.474,2.673,2.673,209.478,177.273,190.726
0.286,30.691,2.643,2.643,209.514,177.148,190.552
0.287,30.882,2.615,2.615,209.546,177.037,190.400
0.288,31.040,2.590,2.590,209.571,176.945,190.275
0.289,31.167,2.572,2.572,209.590,176.868,190.176
0.291,31.268,2.563,2.563,209.603,176.801,190.100
0.292,31.353,2.567,2.567,209.611,176.739,190.044
0.293,31.427,2.587,2.587,209.613,176.676,190.003
0.294,31.502,2.624,2.624,209.610,176.607,189.976
0.295,31.585,2.676,2.676,209.602,176.526,189.957
0.297,31.684,2.740,2.740,209.590,176.429,189.945
0.298,31.806,2.812,2.812,209.575,176.308,189.935
0.299,31.957,2.890,2.890,209.556,176.159,189.923
0.300,32.138,2.971,2.971,209.534,175.979,189.908
0.301,32.346,3.052,3.052,209.509,175.774,189.889
0.302,32.571,3.128,3.128,209.483,175.551,189.867
0.304,32.807,3.198,3.198,209.457,175.318,189.840
0.305,33.046,3.260,3.260,209.430,175.083,189.811
0.306,33.280,3.315,3.315,209.404,174.852,189.779
0.307,33.503,3.364,3.364,209.379,174.634,189.744
0.308,33.705,3.406,3.406,209.357,174.436,189.706
0.310,33.881,3.443,3.443,209.337,174.266,189.667
0.311,34.024,3.474,3.474,209.321,174.130,189.626
0.312,34.131,3.502,3.502,209.308,174.032,189.583
0.313,34.209,3.525,3.525,209.299,173.969,189.541
0.314,34.263,3.546,3.546,209.290,173.934,189.500
0.316,34.303,3.564,3.564,209.283,173.925,189.461
0.317,34.341,3.579,3.579,209.275,173.936,189.427
0.318,34.382,3.594,3.594,209.265,173.964,189.397
0.319,34.430,3.608,3.608,209.254,174.004,189.374
0.320,34.482,3.622,3.622,209.239,174.052,189.359
0.321,34.538,3.637,3.637,209.219,174.103,189.352
0.323,34.594,3.653,3.653,209.194,174.154,189.355
0.324,34.649,3.671,3.671,209.165,174.200,189.366
0.325,34.700,3.690,3.690,209.134,174.238,189.379
0.326,34.743,3.709,3.709,209.103,174.266,189.390
0.327,34.776,3.725,3.725,209.075,174.280,189.394
0.329,34.801,3.738,3.738,209.050,174.276,189.387
0.330,34.839,3.744,3.744,209.033,174.253,189.364
0.331,34.904,3.742,3.742,209.024,174.206,189.319
0.332,35.006,3.731,3.731,209.026,174.132,189.249
0.333,35.151,3.707,3.707,209.041,174.029,189.148
0.335,35.343,3.672,3.672,209.071,173.895,189.014
0.336,35.576,3.625,3.625,209.113,173.734,188.850
0.337,35.842,3.570,3.570,209.165,173.554,188.663
0.338,36.131,3.509,3.509,209.226,173.361,188.456
0.339,36.435,3.444,3.444,209.292,173.162,188.236
0.340,36.744,3.379,3.379,209.360,172.964,188.008
0.342,37.051,3.315,3.315,209.429,172.773,187.778
0.343,37.347,3.256,3.256,209.496,172.596,187.551
0.344,37.622,3.203,3.203,209.558,172.439,187.333
0.345,37.870,3.158,3.158,209.613,172.311,187.128
0.346,38.087,3.119,3.119,209.660,172.212,186.941
0.348,38.277,3.086,3.086,209.699,172.140,186.769
0.349,38.446,3.057,3.057,209.732,172.091,186.611
0.350,38.597,3.033,3.033,209.759,172.059,186.466
0.351,38.735,3.012,3.012,209.783,172.042,186.331
0.352,38.862,2.993,2.993,209.803,172.035,186.205
0.353,38.982,2.976,2.976,209.820,172.033,186.087
0.355,39.095,2.959,2.959,209.837,172.033,185.975
0.356,39.204,2.943,2.943,209.853,172.030,185.868
0.357,39.311,2.926,2.926,209.871,172.021,185.763
0.358,39.419,2.910,2.910,209.889,172.006,185.657
0.359,39.531,2.894,2.894,209.909,171.991,185.548
0.361,39.650,2.877,2.877,209.929,171.981,185.431
0.362,39.779,2.860,2.860,209.949,171.980,185.304
0.363,39.924,2.843,2.843,209.970,171.994,185.161
0.364,40.090,2.824,2.824,209.991,172.027,185.000
0.365,40.283,2.806,2.806,210.012,172.085,184.817
0.367,40.510,2.788,2.788,210.033,172.172,184.608
0.368,40.778,2.771,2.771,210.053,172.294,184.370
0.369,41.092,2.756,2.756,210.072,172.453,184.100
0.370,41.443,2.744,2.744,210.091,172.645,183.806
0.371,41.820,2.735,2.735,210.108,172.859,183.496
0.372,42.211,2.731,2.731,210.124,173.087,183.180
0.374,42.602,2.731,2.731,210.140,173.320,182.867
0.375,42.981,2.738,2.738,210.154,173.550,182.565
0.376,43.337,2.749,2.749,210.167,173.768,182.284
0.377,43.656,2.765,2.765,210.179,173.965,182.034
0.378,43.925,2.785,2.785,210.190,174.132,181.823
0.380,44.133,2.808,2.808,210.199,174.261,181.660
0.381,44.273,2.833,2.833,210.207,174.347,181.550
0.382,44.355,2.860,2.860,210.212,174.396,181.484
0.383,44.391,2.888,2.888,210.214,174.414,181.454
0.384,44.397,2.916,2.916,210.212,174.409,181.451
0.386,44.426,2.944,2.944,210.206,174.386,181.467
0.387,44.470,2.971,2.971,210.194,174.352,181.493
0.388,44.521,2.997,2.997,210.176,174.313,181.520
0.389,44.569,3.022,3.022,210.151,174.276,181.539
0.390,44.612,3.045,3.045,210.118,174.248,181.542
0.391,44.661,3.066,3.066,210.077,174.234,181.520
0.393,44.729,3.085,3.085,210.028,174.237,181.474
0.394,44.817,3.101,3.101,209.972,174.252,181.407
0.395,44.920,3.114,3.114,209.913,174.276,181.326
0.396,45.034,3.124,3.124,209.850,174.306,181.236
0.397,45.151,3.133,3.133,209.786,174.338,181.144
0.399,45.265,3.141,3.141,209.722,174.369,181.054
0.400,45.370,3.148,3.148,209.661,174.396,180.973
0.401,45.460,3.155,3.155,209.603,174.416,180.907
0.402,45.530,3.163,3.163,209.551,174.424,180.861
0.403,45.581,3.172,3.172,209.506,174.418,180.839
0.405,45.624,3.184,3.184,209.467,174.398,180.838
0.406,45.673,3.197,3.197,209.434,174.365,180.852
0.407,45.730,3.209,3.209,209.405,174.322,180.876
0.408,45.794,3.220,3.220,209.379,174.269,180.901
0.409,45.863,3.227,3.227,209.355,174.208,180.923
0.410,45.935,3.227,3.227,209.332,174.141,180.934
0.412,46.012,3.220,3.220,209.309,174.068,180.929
0.413,46.097,3.202,3.202,209.284,173.991,180.901
0.414,46.198,3.173,3.173,209.257,173.911,180.845
0.415,46.321,3.130,3.130,209.228,173.831,180.756
0.416,46.467,3.076,3.076,209.196,173.751,180.640
0.418,46.631,3.014,3.014,209.163,173.671,180.500
0.419,46.810,2.946,2.946,209.129,173.595,180.342
0.420,46.998,2.876,2.876,209.097,173.521,180.171
0.421,47.192,2.807,2.807,209.066,173.453,179.993
0.422,47.386,2.742,2.742,209.038,173.390,179.811
0.423,47.575,2.683,2.683,209.014,173.334,179.632
0.425,47.754,2.635,2.635,208.995,173.287,179.461
0.426,47.918,2.597,2.597,208.981,173.249,179.302
0.427,48.065,2.570,2.570,208.973,173.220,179.158
0.428,48.196,2.551,2.551,208.970,173.199,179.028
0.429,48.311,2.539,2.539,208.971,173.185,178.914
0.431,48.411,2.533,2.533,208.973,173.176,178.814
0.432,48.497,2.531,2.531,208.978,173.171,178.729
0.433,48.567,2.532,2.532,208.982,173.169,178.659
0.434,48.623,2.535,2.535,208.986,173.168,178.603
0.435,48.665,2.538,2.538,208.988,173.167,178.561
0.437,48.693,2.540,2.540,208.986,173.165,178.534
0.438,48.708,2.542,2.542,208.981,173.161,178.520
0.439,48.720,2.544,2.544,208.972,173.153,178.519
0.440,48.739,2.546,2.546,208.959,173.142,178.527
0.441,48.765,2.547,2.547,208.943,173.127,178.543
0.442,48.799,2.549,2.549,208.924,173.109,178.563
0.444,48.837,2.549,2.549,208.903,173.087,178.586
0.445,48.880,2.550,2.550,208.880,173.060,178.609
0.446,48.925,2.550,2.550,208.855,173.029,178.630
0.447,48.972,2.549,2.549,208.828,172.993,178.646
0.448,49.022,2.547,2.547,208.801,172.952,178.655
0.450,49.076,2.544,2.544,208.774,172.906,178.656
0.451,49.133,2.539,2.539,208.747,172.856,178.649
0.452,49.192,2.531,2.531,208.722,172.804,178.636
0.453,49.252,2.521,2.521,208.700,172.751,178.619
0.454,49.310,2.508,2.508,208.681,172.699,178.599
0.456,49.366,2.491,2.491,208.668,172.649,178.578
0.457,49.417,2.472,2.472,208.660,172.603,178.557
0.458,49.462,2.450,2.450,208.660,172.562,178.539
0.459,49.501,2.426,2.426,208.667,172.527,178.525
0.460,49.534,2.401,2.401,208.684,172.500,178.516
0.461,49.565,2.375,2.375,208.708,172.480,178.512
0.463,49.596,2.349,2.349,208.735,172.466,178.512
0.464,49.623,2.323,2.323,208.760,172.453,178.514
0.465,49.646,2.297,2.297,208.777,172.440,178.514
0.466,49.664,2.273,2.273,208.783,172.422,178.512
0.467,49.691,2.249,2.249,208.772,172.399,178.505
0.469,49.740,2.223,2.223,208.739,172.366,178.491
0.470,49.818,2.195,2.195,208.679,172.321,178.468
0.471,49.933,2.165,2.165,208.587,172.261,178.435
0.472,50.089,2.130,2.130,208.459,172.183,178.388
0.473,50.284,2.091,2.091,208.300,172.090,178.329
0.474,50.507,2.045,2.045,208.116,171.983,178.259
0.476,50.752,1.993,1.993,207.915,171.867,178.181
0.477,51.008,1.935,1.935,207.707,171.745,178.095
0.478,51.268,1.874,1.874,207.498,171.620,178.004
0.479,51.522,1.811,1.811,207.298,171.495,177.910
0.480,51.763,1.749,1.749,207.113,171.374,177.813
0.482,51.982,1.689,1.689,206.953,171.260,177.717
0.483,52.173,1.634,1.634,206.824,171.157,177.622
0.484,52.331,1.586,1.586,206.733,171.066,177.530
