"T","Distance","Radius","FreeRadius","X","Y","Z"
0.000,0.000,1.093,1.093,219.447,183.956,177.620
0.001,0.173,1.161,1.161,219.418,183.803,177.695
0.003,0.344,1.227,1.227,219.389,183.652,177.771
0.004,0.512,1.291,1.291,219.359,183.506,177.847
0.006,0.676,1.351,1.351,219.328,183.365,177.924
0.007,0.833,1.405,1.405,219.294,183.233,178.003
0.009,0.984,1.453,1.453,219.258,183.111,178.083
0.010,1.126,1.493,1.493,219.218,183.001,178.165
0.012,1.261,1.523,1.523,219.174,182.905,178.249
0.013,1.387,1.546,1.546,219.127,182.826,178.335
0.015,1.507,1.562,1.562,219.074,182.765,178.424
0.016,1.624,1.571,1.571,219.016,182.725,178.517
0.017,1.739,1.577,1.577,218.953,182.705,178.612
0.019,1.857,1.579,1.579,218.887,182.702,178.708
0.020,1.977,1.578,1.578,218.817,182.716,178.806
0.022,2.101,1.577,1.577,218.746,182.743,178.903
0.023,2.227,1.574,1.574,218.674,182.782,178.999
0.025,2.354,1.571,1.571,218.602,182.830,179.092
0.026,2.481,1.567,1.567,218.532,182.886,179.182
0.028,2.606,1.562,1.562,218.464,182.946,179.269
0.029,2.727,1.557,1.557,218.400,183.009,179.350
0.030,2.842,1.551,1.551,218.341,183.073,179.424
0.032,2.949,1.546,1.546,218.288,183.136,179.493
0.033,3.049,1.539,1.539,218.239,183.197,179.554
0.035,3.142,1.533,1.533,218.194,183.256,179.611
0.036,3.228,1.525,1.525,218.152,183.311,179.663
0.038,3.308,1.517,1.517,218.114,183.362,179.711
0.039,3.383,1.507,1.507,218.077,183.409,179.756
0.041,3.452,1.497,1.497,218.041,183.450,179.799
0.042,3.517,1.485,1.485,218.005,183.486,179.840
0.044,3.579,1.473,1.473,217.969,183.514,179.881
0.045,3.638,1.462,1.462,217.933,183.536,179.921
0.046,3.696,1.454,1.454,217.894,183.550,179.963
0.048,3.756,1.448,1.448,217.852,183.557,180.005
0.049,3.818,1.448,1.448,217.807,183.561,180.047
0.051,3.883,1.452,1.452,217.758,183.564,180.090
0.052,3.952,1.463,1.463,217.704,183.568,180.132
0.054,4.025,1.479,1.479,217.644,183.576,180.174
0.055,4.105,1.497,1.497,217.577,183.590,180.214
0.057,4.192,1.516,1.516,217.503,183.614,180.252
0.058,4.289,1.535,1.535,217.420,183.650,180.289
0.060,4.399,1.552,1.552,217.328,183.700,180.323
0.061,4.524,1.566,1.566,217.227,183.767,180.354
0.062,4.667,1.575,1.575,217.116,183.852,180.383
0.064,4.823,1.582,1.582,216.998,183.950,180.410
0.065,4.988,1.588,1.588,216.876,184.059,180.438
0.067,5.159,1.596,1.596,216.753,184.174,180.467
0.068,5.330,1.607,1.607,216.633,184.290,180.499
0.070,5.497,1.623,1.623,216.517,184.404,180.536
0.071,5.656,1.646,1.646,216.408,184.513,180.578
0.073,5.803,1.677,1.677,216.311,184.611,180.628
0.074,5.935,1.713,1.713,216.227,184.695,180.686
0.075,6.052,1.753,1.753,216.160,184.761,180.755
0.077,6.156,1.795,1.795,216.111,184.806,180.835
0.078,6.254,1.836,1.836,216.080,184.830,180.925
0.080,6.352,1.874,1.874,216.065,184.837,181.022
0.081,6.454,1.908,1.908,216.061,184.831,181.124
0.083,6.559,1.937,1.937,216.066,184.814,181.227
0.084,6.664,1.961,1.961,216.078,184.790,181.329
0.086,6.767,1.982,1.982,216.093,184.762,181.427
0.087,6.865,2.000,2.000,216.109,184.734,181.519
0.089,6.952,2.019,2.019,216.123,184.708,181.602
0.090,7.026,2.037,2.037,216.131,184.688,181.672
0.091,7.084,2.058,2.058,216.132,184.678,181.729
0.093,7.126,2.079,2.079,216.124,184.679,181.771
0.094,7.163,2.099,2.099,216.112,184.691,181.802
0.096,7.201,2.113,2.113,216.099,184.715,181.829
0.097,7.246,2.119,2.119,216.088,184.751,181.854
0.099,7.302,2.113,2.113,216.084,184.799,181.883
0.100,7.373,2.092,2.092,216.090,184.860,181.920
0.102,7.463,2.053,2.053,216.110,184.933,181.969
0.103,7.578,1.997,1.997,216.148,185.018,182.036
0.104,7.723,1.932,1.932,216.207,185.116,182.124
0.106,7.903,1.866,1.866,216.292,185.228,182.238
0.107,8.124,1.807,1.807,216.404,185.352,182.382
0.109,8.379,1.764,1.764,216.540,185.487,182.550
0.110,8.661,1.744,1.744,216.695,185.632,182.736
0.112,8.962,1.756,1.756,216.864,185.785,182.932
0.113,9.273,1.799,1.799,217.041,185.944,183.132
0.115,9.585,1.863,1.863,217.221,186.107,183.328
0.116,9.890,1.938,1.938,217.400,186.272,183.513
0.118,10.181,2.013,2.013,217.570,186.438,183.681
0.119,10.450,2.078,2.078,217.728,186.602,183.824
0.120,10.690,2.123,2.123,217.868,186.763,183.935
0.122,10.898,2.136,2.136,217.984,186.918,184.007
0.123,11.077,2.117,2.117,218.076,187.068,184.040
0.125,11.235,2.075,2.075,218.146,187.210,184.039
0.126,11.382,2.018,2.018,218.197,187.345,184.010
0.128,11.523,1.954,1.954,218.232,187.472,183.959
0.129,11.661,1.893,1.893,218.252,187.589,183.891
0.131,11.795,1.843,1.843,218.262,187.698,183.813
0.132,11.924,1.812,1.812,218.263,187.796,183.729
0.134,12.044,1.802,1.802,218.259,187.884,183.646
0.135,12.152,1.809,1.809,218.253,187.960,183.570
0.136,12.243,1.828,1.828,218.246,188.025,183.506
0.138,12.314,1.857,1.857,218.242,188.077,183.459
0.139,12.366,1.889,1.889,218.240,188.119,183.428
0.141,12.402,1.921,1.921,218.240,188.150,183.410
0.142,12.426,1.949,1.949,218.242,188.173,183.404
0.144,12.443,1.970,1.970,218.244,188.190,183.407
0.145,12.458,1.986,1.986,218.248,188.200,183.416
0.147,12.474,1.998,1.998,218.252,188.206,183.431
0.148,12.492,2.006,2.006,218.256,188.209,183.448
0.149,12.510,2.011,2.011,218.260,188.210,183.466
0.151,12.526,2.014,2.014,218.264,188.211,183.482
0.152,12.539,2.016,2.016,218.266,188.212,183.494
0.154,12.548,2.017,2.017,218.267,188.217,183.502
0.155,12.557,2.017,2.017,218.268,188.225,183.505
0.157,12.571,2.016,2.016,218.268,188.239,183.503
0.158,12.593,2.014,2.014,218.267,188.261,183.498
0.160,12.626,2.012,2.012,218.266,188.291,183.487
0.161,12.670,2.010,2.010,218.265,188.333,183.473
0.163,12.728,2.007,2.007,218.264,188.388,183.454
0.164,12.800,2.005,2.005,218.263,188.456,183.431
0.165,12.889,2.004,2.004,218.263,188.541,183.404
0.167,12.996,2.007,2.007,218.264,188.643,183.373
0.168,13.121,2.014,2.014,218.265,188.764,183.338
0.170,13.262,2.026,2.026,218.266,188.900,183.302
0.171,13.414,2.046,2.046,218.266,189.048,183.267
0.173,13.575,2.073,2.073,218.264,189.205,183.234
0.174,13.740,2.107,2.107,218.259,189.368,183.206
0.176,13.908,2.147,2.147,218.251,189.534,183.185
0.177,14.074,2.189,2.189,218.238,189.699,183.172
0.179,14.236,2.232,2.232,218.219,189.860,183.171
0.180,14.393,2.274,2.274,218.194,190.015,183.183
0.181,14.544,2.313,2.313,218.162,190.159,183.210
0.183,14.688,2.346,2.346,218.121,190.291,183.254
0.184,14.829,2.374,2.374,218.074,190.410,183.314
0.186,14.970,2.399,2.399,218.022,190.517,183.387
0.187,15.110,2.422,2.422,217.967,190.616,183.471
0.189,15.251,2.445,2.445,217.910,190.706,183.562
0.190,15.391,2.469,2.469,217.855,190.791,183.659
0.192,15.529,2.496,2.496,217.802,190.872,183.758
0.193,15.663,2.526,2.526,217.754,190.950,183.857
0.194,15.793,2.561,2.561,217.714,191.027,183.953
0.196,15.917,2.599,2.599,217.681,191.106,184.043
0.197,16.035,2.639,2.639,217.660,191.187,184.125
0.199,16.146,2.681,2.681,217.650,191.271,184.197
0.200,16.252,2.724,2.724,217.649,191.357,184.259
0.202,16.351,2.768,2.768,217.656,191.442,184.310
0.203,16.444,2.811,2.811,217.668,191.524,184.352
0.205,16.529,2.851,2.851,217.684,191.601,184.384
0.206,16.605,2.888,2.888,217.701,191.672,184.407
0.208,16.670,2.920,2.920,217.717,191.733,184.419
0.209,16.722,2.943,2.943,217.731,191.783,184.423
0.210,16.760,2.957,2.957,217.740,191.820,184.417
0.212,16.786,2.960,2.960,217.741,191.841,184.401
0.213,16.812,2.951,2.951,217.735,191.846,184.377
0.215,16.846,2.931,2.931,217.722,191.837,184.347
0.216,16.887,2.904,2.904,217.704,191.818,184.315
0.218,16.929,2.874,2.874,217.686,191.795,184.285
0.219,16.967,2.844,2.844,217.670,191.772,184.260
0.221,16.994,2.817,2.817,217.658,191.753,184.245
0.222,17.005,2.797,2.797,217.653,191.743,184.243
0.224,17.022,2.786,2.786,217.659,191.746,184.257
0.225,17.067,2.786,2.786,217.679,191.767,184.293
0.226,17.150,2.795,2.795,217.714,191.811,184.354
0.228,17.275,2.813,2.813,217.768,191.881,184.442
0.229,17.444,2.838,2.838,217.840,191.978,184.559
0.231,17.646,2.871,2.871,217.927,192.098,184.698
0.232,17.874,2.911,2.911,218.025,192.233,184.852
0.234,18.117,2.956,2.956,218.130,192.379,185.016
0.235,18.366,3.005,3.005,218.237,192.530,185.183
0.237,18.612,3.055,3.055,218.343,192.679,185.347
0.238,18.845,3.104,3.104,218.443,192.823,185.501
0.239,19.056,3.148,3.148,218.533,192.954,185.640
0.241,19.237,3.185,3.185,218.610,193.067,185.758
0.242,19.376,3.213,3.213,218.669,193.157,185.847
0.244,19.469,3.230,3.230,218.706,193.219,185.903
0.245,19.519,3.237,3.237,218.726,193.257,185.931
0.247,19.537,3.236,3.236,218.731,193.274,185.936
0.248,19.551,3.231,3.231,218.725,193.274,185.924
0.250,19.580,3.221,3.221,218.713,193.263,185.900
0.251,19.618,3.211,3.211,218.698,193.245,185.871
0.253,19.656,3.203,3.203,218.683,193.223,185.842
0.254,19.688,3.197,3.197,218.674,193.203,185.820
0.255,19.706,3.195,3.195,218.673,193.189,185.809
0.257,19.721,3.197,3.197,218.685,193.184,185.816
0.258,19.763,3.204,3.204,218.714,193.195,185.847
0.260,19.838,3.215,3.215,218.758,193.220,185.901
0.261,19.940,3.232,3.232,218.817,193.258,185.975
0.263,20.062,3.253,3.253,218.885,193.305,186.064
0.264,20.198,3.280,3.280,218.960,193.359,186.164
0.266,20.342,3.311,3.311,219.040,193.418,186.270
0.267,20.489,3.342,3.342,219.120,193.478,186.378
0.269,20.632,3.373,3.373,219.197,193.536,186.482
0.270,20.765,3.401,3.401,219.269,193.591,186.580
0.271,20.881,3.424,3.424,219.332,193.639,186.665
0.273,20.976,3.440,3.440,219.383,193.677,186.735
0.274,21.043,3.447,3.447,219.419,193.704,186.785
0.276,21.087,3.448,3.448,219.443,193.720,186.818
0.277,21.110,3.443,3.443,219.456,193.728,186.836
0.279,21.117,3.436,3.436,219.459,193.729,186.841
0.280,21.124,3.427,3.427,219.455,193.725,186.836
0.282,21.142,3.419,3.419,219.445,193.717,186.824
0.283,21.166,3.414,3.414,219.432,193.706,186.807
0.284,21.193,3.413,3.413,219.417,193.696,186.788
0.286,21.219,3.416,3.416,219.402,193.686,186.768
0.287,21.242,3.420,3.420,219.389,193.679,186.751
0.289,21.257,3.425,3.425,219.379,193.676,186.740
0.290,21.265,3.429,3.429,219.374,193.678,186.734
0.292,21.272,3.433,3.433,219.372,193.684,186.734
0.293,21.285,3.433,3.433,219.373,193.696,186.740
0.295,21.305,3.430,3.430,219.376,193.711,186.751
0.296,21.331,3.425,3.425,219.382,193.731,186.768
0.298,21.365,3.418,3.418,219.389,193.756,186.790
0.299,21.406,3.411,3.411,219.397,193.784,186.818
0.300,21.453,3.404,3.404,219.405,193.817,186.851
0.302,21.506,3.398,3.398,219.413,193.854,186.888
0.303,21.565,3.394,3.394,219.420,193.894,186.931
0.305,21.630,3.392,3.392,219.427,193.938,186.978
0.306,21.699,3.391,3.391,219.432,193.986,187.027
0.308,21.770,3.388,3.388,219.436,194.038,187.077
0.309,21.843,3.383,3.383,219.440,194.092,187.124
0.311,21.915,3.373,3.373,219.443,194.150,187.168
0.312,21.987,3.355,3.355,219.444,194.211,187.206
0.313,22.057,3.330,3.330,219.445,194.274,187.237
0.315,22.126,3.294,3.294,219.445,194.340,187.257
0.316,22.196,3.252,3.252,219.445,194.409,187.265
0.318,22.267,3.203,3.203,219.444,194.480,187.259
0.319,22.343,3.150,3.150,219.441,194.553,187.237
0.321,22.429,3.096,3.096,219.437,194.631,187.202
0.322,22.524,3.041,3.041,219.429,194.714,187.156
0.324,22.631,2.988,2.988,219.415,194.806,187.103
0.325,22.750,2.937,2.937,219.393,194.908,187.047
0.327,22.881,2.886,2.886,219.361,195.023,186.990
0.328,23.028,2.833,2.833,219.317,195.152,186.938
0.329,23.192,2.776,2.776,219.260,195.299,186.892
0.331,23.376,2.712,2.712,219.187,195.465,186.857
0.332,23.585,2.639,2.639,219.097,195.653,186.836
0.334,23.823,2.555,2.555,218.988,195.864,186.833
0.335,24.090,2.460,2.460,218.860,196.097,186.848
0.337,24.381,2.359,2.359,218.716,196.347,186.881
0.338,24.687,2.256,2.256,218.560,196.607,186.927
0.340,25.003,2.156,2.156,218.396,196.870,186.987
0.341,25.320,2.064,2.064,218.229,197.130,187.056
0.343,25.630,1.983,1.983,218.061,197.380,187.133
0.344,25.927,1.920,1.920,217.896,197.613,187.215
0.345,26.203,1.875,1.875,217.739,197.824,187.300
0.347,26.451,1.847,1.847,217.593,198.004,187.387
0.348,26.664,1.834,1.834,217.463,198.149,187.472
0.350,26.837,1.832,1.832,217.350,198.252,187.553
0.351,26.976,1.840,1.840,217.255,198.317,187.631
0.353,27.088,1.857,1.857,217.178,198.350,187.705
0.354,27.182,1.878,1.878,217.117,198.358,187.776
0.356,27.265,1.902,1.902,217.070,198.346,187.844
0.357,27.341,1.928,1.928,217.038,198.320,187.908
0.358,27.414,1.952,1.952,217.019,198.287,187.970
0.360,27.483,1.973,1.973,217.011,198.252,188.029
0.361,27.546,1.989,1.989,217.014,198.223,188.085
0.363,27.605,1.997,1.997,217.027,198.204,188.139
0.364,27.661,1.996,1.996,217.048,198.202,188.191
0.366,27.721,1.984,1.984,217.076,198.220,188.241
0.367,27.791,1.963,1.963,217.107,198.257,188.291
0.369,27.872,1.933,1.933,217.138,198.312,188.342
0.370,27.966,1.895,1.895,217.167,198.385,188.395
0.372,28.073,1.850,1.850,217.188,198.473,188.451
0.373,28.194,1.800,1.800,217.201,198.577,188.512
0.374,28.329,1.744,1.744,217.200,198.695,188.578
0.376,28.481,1.686,1.686,217.184,198.827,188.652
0.377,28.650,1.626,1.626,217.148,198.971,188.733
0.379,28.840,1.569,1.569,217.090,199.126,188.824
0.380,29.050,1.518,1.518,217.008,199.292,188.925
0.382,29.280,1.474,1.474,216.903,199.465,189.034
0.383,29.526,1.441,1.441,216.777,199.643,189.148
0.385,29.783,1.422,1.422,216.635,199.822,189.264
0.386,30.046,1.416,1.416,216.478,200.000,189.380
0.388,30.313,1.423,1.423,216.309,200.173,189.492
0.389,30.578,1.442,1.442,216.131,200.338,189.599
0.390,30.838,1.470,1.470,215.947,200.493,189.697
0.392,31.088,1.507,1.507,215.760,200.635,189.783
0.393,31.325,1.550,1.550,215.572,200.760,189.855
0.395,31.546,1.599,1.599,215.386,200.865,189.911
0.396,31.751,1.651,1.651,215.204,200.951,189.950
0.398,31.942,1.706,1.706,215.027,201.019,189.975
0.399,32.121,1.762,1.762,214.856,201.071,189.989
0.401,32.288,1.816,1.816,214.694,201.109,189.994
0.402,32.444,1.867,1.867,214.540,201.135,189.994
0.403,32.588,1.915,1.915,214.397,201.150,189.991
0.405,32.720,1.956,1.956,214.265,201.158,189.988
0.406,32.839,1.990,1.990,214.146,201.159,189.987
0.408,32.944,2.019,2.019,214.041,201.156,189.991
0.409,33.035,2.042,2.042,213.951,201.151,190.003
0.411,33.112,2.060,2.060,213.877,201.145,190.024
0.412,33.178,2.074,2.074,213.818,201.139,190.053
0.414,33.236,2.084,2.084,213.772,201.133,190.088
0.415,33.287,2.089,2.089,213.737,201.129,190.125
0.417,33.333,2.092,2.092,213.713,201.127,190.164
0.418,33.374,2.094,2.094,213.696,201.128,190.201
0.419,33.409,2.094,2.094,213.687,201.131,190.234
0.421,33.438,2.095,2.095,213.683,201.139,190.262
0.422,33.461,2.098,2.098,213.682,201.151,190.281
0.424,33.481,2.103,2.103,213.683,201.169,190.291
0.425,33.504,2.111,2.111,213.686,201.193,190.287
0.427,33.538,2.122,2.122,213.688,201.222,190.272
0.428,33.582,2.135,2.135,213.690,201.257,190.245
0.430,33.637,2.146,2.146,213.693,201.299,190.209
0.431,33.702,2.156,2.156,213.696,201.346,190.164
0.433,33.777,2.162,2.162,213.699,201.399,190.112
0.434,33.859,2.162,2.162,213.702,201.457,190.054
0.435,33.948,2.156,2.156,213.706,201.520,189.992
0.437,34.043,2.143,2.143,213.711,201.589,189.926
0.438,34.143,2.126,2.126,213.716,201.664,189.859
0.440,34.248,2.106,2.106,213.721,201.743,189.791
0.441,34.357,2.085,2.085,213.727,201.828,189.723
0.443,34.468,2.064,2.064,213.734,201.918,189.657
0.444,34.584,2.046,2.046,213.741,202.014,189.594
0.446,34.703,2.031,2.031,213.749,202.116,189.534
0.447,34.825,2.021,2.021,213.757,202.226,189.479
0.448,34.952,2.013,2.013,213.766,202.342,189.429
0.450,35.084,2.008,2.008,213.776,202.466,189.386
0.451,35.221,2.005,2.005,213.786,202.598,189.350
0.453,35.365,2.002,2.002,213.796,202.739,189.323
0.454,35.516,2.000,2.000,213.808,202.888,189.305
0.456,35.675,1.997,1.997,213.820,203.047,189.298
0.457,35.841,1.994,1.994,213.832,203.212,189.299
0.459,36.012,1.992,1.992,213.845,203.383,189.308
0.460,36.186,1.990,1.990,213.858,203.555,189.321
0.462,36.359,1.991,1.991,213.872,203.727,189.338
0.463,36.529,1.995,1.995,213.886,203.896,189.356
0.464,36.694,2.002,2.002,213.900,204.059,189.374
0.466,36.850,2.013,2.013,213.915,204.214,189.389
0.467,36.995,2.028,2.028,213.929,204.358,189.399
0.469,37.127,2.045,2.045,213.944,204.489,189.403
0.470,37.243,2.065,2.065,213.959,204.603,189.398
0.472,37.343,2.086,2.086,213.975,204.702,189.385
0.473,37.432,2.107,2.107,213.992,204.786,189.366
0.475,37.512,2.128,2.128,214.015,204.860,189.343
0.476,37.587,2.148,2.148,214.043,204.925,189.320
0.478,37.660,2.166,2.166,214.079,204.985,189.298
0.479,37.735,2.184,2.184,214.124,205.041,189.280
0.480,37.815,2.201,2.201,214.181,205.098,189.269
0.482,37.907,2.216,2.216,214.251,205.157,189.267
0.483,38.014,2.231,2.231,214.336,205.221,189.277
0.485,38.141,2.245,2.245,214.437,205.294,189.301
0.486,38.291,2.259,2.259,214.555,205.377,189.342
0.488,38.461,2.271,2.271,214.687,205.469,189.397
0.489,38.643,2.281,2.281,214.825,205.571,189.461
0.491,38.833,2.290,2.290,214.963,205.680,189.531
0.492,39.023,2.295,2.295,215.095,205.795,189.604
0.493,39.208,2.298,2.298,215.215,205.916,189.676
0.495,39.382,2.296,2.296,215.318,206.040,189.742
0.496,39.543,2.291,2.291,215.396,206.168,189.800
0.498,39.688,2.284,2.284,215.443,206.298,189.845
0.499,39.822,2.275,2.275,215.454,206.428,189.874
0.501,39.956,2.267,2.267,215.422,206.559,189.883
0.502,40.105,2.262,2.262,215.349,206.688,189.873
0.504,40.274,2.262,2.262,215.242,206.816,189.849
0.505,40.462,2.267,2.267,215.109,206.945,189.816
0.507,40.663,2.279,2.279,214.959,207.073,189.780
0.508,40.871,2.297,2.297,214.799,207.202,189.747
0.509,41.079,2.319,2.319,214.638,207.332,189.721
0.511,41.282,2.343,2.343,214.484,207.462,189.707
0.512,41.474,2.366,2.366,214.344,207.593,189.712
0.514,41.653,2.388,2.388,214.227,207.727,189.740
0.515,41.823,2.406,2.406,214.141,207.862,189.798
0.517,41.993,2.418,2.418,214.092,207.998,189.887
0.518,42.173,2.426,2.426,214.075,208.134,190.003
0.520,42.366,2.431,2.431,214.086,208.268,190.141
0.521,42.568,2.434,2.434,214.119,208.397,190.293
0.522,42.776,2.437,2.437,214.168,208.520,190.454
0.524,42.984,2.441,2.441,214.229,208.633,190.617
0.525,43.184,2.447,2.447,214.295,208.735,190.776
0.527,43.370,2.456,2.456,214.362,208.824,190.925
0.528,43.533,2.467,2.467,214.425,208.897,191.057
0.530,43.667,2.480,2.480,214.477,208.952,191.167
0.531,43.762,2.494,2.494,214.513,208.988,191.248
0.533,43.822,2.507,2.507,214.534,209.006,191.300
0.534,43.852,2.519,2.519,214.541,209.013,191.329
0.536,43.861,2.529,2.529,214.538,209.014,191.337
0.537,43.874,2.536,2.536,214.527,209.016,191.329
0.538,43.900,2.541,2.541,214.511,209.025,191.310
0.540,43.938,2.545,2.545,214.492,209.045,191.285
0.541,43.990,2.547,2.547,214.474,209.084,191.256
0.543,44.060,2.549,2.549,214.459,209.147,191.229
0.544,44.155,2.550,2.550,214.449,209.239,191.208
0.546,44.284,2.553,2.553,214.448,209.367,191.198
0.547,44.450,2.556,2.556,214.458,209.533,191.200
0.549,44.649,2.561,2.561,214.477,209.731,191.214
0.550,44.873,2.568,2.568,214.507,209.951,191.238
0.552,45.114,2.577,2.577,214.547,210.187,191.271
0.553,45.365,2.589,2.589,214.597,210.429,191.311
0.554,45.618,2.603,2.603,214.657,210.671,191.356
0.556,45.866,2.621,2.621,214.726,210.904,191.404
0.557,46.101,2.641,2.641,214.804,211.121,191.455
0.559,46.317,2.664,2.664,214.892,211.312,191.505
0.560,46.509,2.687,2.687,214.988,211.470,191.554
0.562,46.674,2.710,2.710,215.093,211.589,191.600
0.563,46.819,2.730,2.730,215.205,211.670,191.643
0.565,46.952,2.748,2.748,215.322,211.719,191.685
0.566,47.082,2.762,2.762,215.443,211.742,191.728
0.567,47.212,2.772,2.772,215.565,211.747,191.772
0.569,47.343,2.778,2.778,215.687,211.738,191.819
0.570,47.474,2.782,2.782,215.806,211.724,191.870
0.572,47.603,2.785,2.785,215.921,211.710,191.927
0.573,47.730,2.788,2.788,216.030,211.703,191.992
0.575,47.854,2.794,2.794,216.131,211.708,192.065
0.576,47.980,2.803,2.803,216.221,211.733,192.148
0.578,48.111,2.815,2.815,216.302,211.780,192.241
0.579,48.253,2.832,2.832,216.373,211.847,192.343
0.581,48.405,2.854,2.854,216.436,211.932,192.452
0.582,48.567,2.879,2.879,216.495,212.032,192.566
0.583,48.739,2.909,2.909,216.549,212.144,192.684
0.585,48.917,2.944,2.944,216.601,212.265,192.803
0.586,49.099,2.984,2.984,216.653,212.393,192.923
0.588,49.284,3.027,3.027,216.706,212.524,193.041
0.589,49.468,3.075,3.075,216.762,212.657,193.155
0.591,49.649,3.125,3.125,216.823,212.788,193.265
