"T","Distance","Radius","FreeRadius","X","Y","Z"
0.000,0.000,1.093,1.093,219.447,183.956,177.620
0.001,0.167,1.168,1.168,219.419,183.808,177.692
0.002,0.333,1.242,1.242,219.391,183.662,177.766
0.004,0.495,1.313,1.313,219.362,183.520,177.839
0.005,0.654,1.379,1.379,219.332,183.384,177.914
0.006,0.807,1.440,1.440,219.300,183.254,177.989
0.007,0.954,1.492,1.492,219.265,183.134,178.066
0.009,1.093,1.536,1.536,219.227,183.025,178.145
0.010,1.225,1.569,1.569,219.187,182.929,178.226
0.011,1.350,1.590,1.590,219.142,182.848,178.309
0.012,1.468,1.600,1.600,219.092,182.784,178.394
0.013,1.581,1.601,1.601,219.038,182.737,178.482
0.015,1.692,1.595,1.595,218.979,182.711,178.573
0.016,1.805,1.584,1.584,218.916,182.701,178.666
0.017,1.920,1.570,1.570,218.850,182.708,178.760
0.018,2.038,1.555,1.555,218.782,182.728,178.854
0.019,2.159,1.542,1.542,218.712,182.760,178.947
0.021,2.281,1.531,1.531,218.643,182.802,179.039
0.022,2.404,1.524,1.524,218.574,182.851,179.128
0.023,2.527,1.520,1.520,218.507,182.907,179.214
0.024,2.646,1.518,1.518,218.443,182.966,179.296
0.026,2.762,1.518,1.518,218.383,183.028,179.372
0.027,2.871,1.517,1.517,218.327,183.090,179.443
0.028,2.972,1.516,1.516,218.276,183.150,179.507
0.029,3.067,1.513,1.513,218.230,183.209,179.566
0.030,3.156,1.507,1.507,218.187,183.265,179.620
0.032,3.239,1.499,1.499,218.147,183.317,179.669
0.033,3.316,1.488,1.488,218.110,183.367,179.715
0.034,3.387,1.476,1.476,218.075,183.411,179.759
0.035,3.454,1.463,1.463,218.040,183.451,179.800
0.037,3.517,1.452,1.452,218.006,183.485,179.840
0.038,3.576,1.442,1.442,217.971,183.513,179.879
0.039,3.633,1.435,1.435,217.935,183.535,179.918
0.040,3.690,1.431,1.431,217.898,183.549,179.958
0.041,3.747,1.433,1.433,217.858,183.557,179.999
0.043,3.807,1.438,1.438,217.815,183.561,180.040
0.044,3.869,1.447,1.447,217.769,183.563,180.081
0.045,3.935,1.459,1.459,217.718,183.567,180.122
0.046,4.005,1.472,1.472,217.661,183.573,180.162
0.048,4.079,1.485,1.485,217.598,183.585,180.201
0.049,4.161,1.498,1.498,217.529,183.605,180.239
0.050,4.251,1.511,1.511,217.452,183.635,180.275
0.051,4.352,1.521,1.521,217.367,183.678,180.309
0.052,4.466,1.529,1.529,217.273,183.735,180.341
0.054,4.597,1.536,1.536,217.170,183.809,180.370
0.055,4.741,1.544,1.544,217.059,183.898,180.396
0.056,4.897,1.552,1.552,216.943,183.999,180.423
0.057,5.060,1.563,1.563,216.825,184.107,180.450
0.058,5.225,1.576,1.576,216.706,184.218,180.479
0.060,5.389,1.594,1.594,216.591,184.331,180.511
0.061,5.548,1.616,1.616,216.481,184.440,180.548
0.062,5.699,1.644,1.644,216.379,184.542,180.591
0.063,5.838,1.676,1.676,216.288,184.634,180.642
0.065,5.962,1.712,1.712,216.211,184.711,180.700
0.066,6.072,1.750,1.750,216.149,184.771,180.769
0.067,6.171,1.790,1.790,216.105,184.811,180.848
0.068,6.265,1.829,1.829,216.078,184.832,180.936
0.069,6.361,1.868,1.868,216.064,184.837,181.031
0.071,6.459,1.905,1.905,216.061,184.830,181.129
0.072,6.560,1.939,1.939,216.067,184.814,181.228
0.073,6.662,1.970,1.970,216.078,184.791,181.327
0.074,6.762,1.998,1.998,216.093,184.764,181.422
0.076,6.857,2.022,2.022,216.108,184.736,181.511
0.077,6.943,2.042,2.042,216.122,184.711,181.592
0.078,7.016,2.057,2.057,216.131,184.691,181.663
0.079,7.074,2.069,2.069,216.133,184.679,181.719
0.080,7.118,2.075,2.075,216.127,184.678,181.762
0.082,7.154,2.077,2.077,216.115,184.687,181.795
0.083,7.189,2.074,2.074,216.102,184.707,181.822
0.084,7.231,2.067,2.067,216.091,184.738,181.846
0.085,7.281,2.056,2.056,216.085,184.781,181.872
0.086,7.344,2.043,2.043,216.087,184.835,181.904
0.088,7.423,2.028,2.028,216.100,184.900,181.946
0.089,7.523,2.011,2.011,216.129,184.978,182.003
0.090,7.648,1.993,1.993,216.176,185.067,182.078
0.091,7.805,1.974,1.974,216.244,185.168,182.175
0.093,7.997,1.956,1.956,216.338,185.281,182.299
0.094,8.225,1.938,1.938,216.457,185.406,182.448
0.095,8.483,1.920,1.920,216.596,185.541,182.618
0.096,8.763,1.902,1.902,216.752,185.684,182.802
0.097,9.058,1.884,1.884,216.918,185.834,182.994
0.099,9.359,1.865,1.865,217.091,185.989,183.187
0.100,9.660,1.847,1.847,217.265,186.147,183.374
0.101,9.953,1.829,1.829,217.436,186.307,183.550
0.102,10.231,1.812,1.812,217.599,186.467,183.708
0.104,10.486,1.795,1.795,217.749,186.625,183.842
0.105,10.715,1.779,1.779,217.882,186.780,183.945
0.106,10.913,1.767,1.767,217.992,186.930,184.011
0.107,11.084,1.757,1.757,218.080,187.074,184.041
0.108,11.237,1.752,1.752,218.147,187.211,184.039
0.110,11.379,1.751,1.751,218.196,187.342,184.011
0.111,11.515,1.756,1.756,218.230,187.464,183.963
0.112,11.648,1.768,1.768,218.251,187.579,183.898
0.113,11.778,1.785,1.785,218.261,187.685,183.823
0.114,11.904,1.806,1.806,218.264,187.781,183.743
0.116,12.022,1.831,1.831,218.260,187.868,183.662
0.117,12.130,1.857,1.857,218.254,187.944,183.587
0.118,12.222,1.884,1.884,218.248,188.009,183.522
0.119,12.296,1.910,1.910,218.243,188.063,183.472
0.121,12.351,1.935,1.935,218.240,188.106,183.437
0.122,12.391,1.955,1.955,218.240,188.140,183.415
0.123,12.418,1.972,1.972,218.241,188.165,183.405
0.124,12.437,1.986,1.986,218.243,188.183,183.404
0.125,12.451,1.996,1.996,218.246,188.196,183.411
0.127,12.466,2.004,2.004,218.250,188.203,183.423
0.128,12.483,2.009,2.009,218.254,188.208,183.439
0.129,12.500,2.012,2.012,218.258,188.210,183.456
0.130,12.517,2.013,2.013,218.262,188.210,183.473
0.132,12.532,2.012,2.012,218.265,188.211,183.487
0.133,12.543,2.011,2.011,218.267,188.213,183.497
0.134,12.551,2.008,2.008,218.267,188.219,183.503
0.135,12.560,2.006,2.006,218.268,188.228,183.505
0.136,12.576,2.003,2.003,218.267,188.243,183.502
0.138,12.599,2.002,2.002,218.267,188.266,183.496
0.139,12.633,2.001,2.001,218.266,188.298,183.485
0.140,12.677,2.002,2.002,218.265,188.340,183.471
0.141,12.735,2.005,2.005,218.264,188.394,183.452
0.143,12.806,2.011,2.011,218.263,188.461,183.429
0.144,12.893,2.018,2.018,218.263,188.544,183.403
0.145,12.996,2.029,2.029,218.264,188.643,183.373
0.146,13.117,2.041,2.041,218.265,188.760,183.340
0.147,13.252,2.055,2.055,218.266,188.890,183.305
0.149,13.399,2.071,2.071,218.266,189.032,183.270
0.150,13.553,2.089,2.089,218.265,189.183,183.238
0.151,13.713,2.109,2.109,218.260,189.340,183.210
0.152,13.874,2.129,2.129,218.253,189.500,183.188
0.153,14.035,2.152,2.152,218.241,189.660,183.174
0.155,14.193,2.175,2.175,218.225,189.817,183.170
0.156,14.347,2.201,2.201,218.202,189.969,183.178
0.157,14.494,2.229,2.229,218.173,190.112,183.199
0.158,14.636,2.259,2.259,218.137,190.244,183.236
0.160,14.773,2.291,2.291,218.094,190.363,183.288
0.161,14.909,2.325,2.325,218.045,190.472,183.354
0.162,15.044,2.363,2.363,217.993,190.570,183.430
0.163,15.180,2.403,2.403,217.939,190.661,183.515
0.164,15.316,2.445,2.445,217.884,190.746,183.606
0.166,15.450,2.488,2.488,217.832,190.826,183.701
0.167,15.583,2.533,2.533,217.783,190.903,183.797
0.168,15.711,2.578,2.578,217.739,190.978,183.892
0.169,15.835,2.622,2.622,217.702,191.053,183.983
0.171,15.953,2.666,2.666,217.674,191.129,184.068
0.172,16.064,2.708,2.708,217.656,191.209,184.144
0.173,16.171,2.749,2.749,217.649,191.291,184.212
0.174,16.272,2.786,2.786,217.650,191.373,184.269
0.175,16.367,2.820,2.820,217.658,191.455,184.318
0.177,16.456,2.850,2.850,217.670,191.534,184.357
0.178,16.537,2.875,2.875,217.685,191.608,184.387
0.179,16.610,2.894,2.894,217.702,191.675,184.408
0.180,16.672,2.907,2.907,217.718,191.734,184.420
0.181,16.722,2.913,2.913,217.731,191.782,184.423
0.183,16.759,2.911,2.911,217.739,191.818,184.417
0.184,16.785,2.903,2.903,217.742,191.840,184.403
0.185,16.809,2.889,2.889,217.736,191.846,184.380
0.186,16.841,2.872,2.872,217.724,191.839,184.352
0.188,16.880,2.852,2.852,217.708,191.822,184.321
0.189,16.921,2.833,2.833,217.690,191.800,184.291
0.190,16.959,2.815,2.815,217.673,191.778,184.265
0.191,16.988,2.801,2.801,217.661,191.758,184.248
0.192,17.004,2.791,2.791,217.654,191.745,184.242
0.194,17.013,2.786,2.786,217.656,191.743,184.250
0.195,17.046,2.788,2.788,217.670,191.757,184.277
0.196,17.111,2.795,2.795,217.697,191.789,184.325
0.197,17.213,2.809,2.809,217.741,191.846,184.399
0.199,17.358,2.828,2.828,217.803,191.928,184.500
0.200,17.538,2.853,2.853,217.881,192.034,184.624
0.201,17.746,2.884,2.884,217.971,192.157,184.766
0.202,17.974,2.921,2.921,218.069,192.293,184.920
0.203,18.212,2.964,2.964,218.171,192.436,185.080
0.205,18.453,3.010,3.010,218.275,192.582,185.241
0.206,18.687,3.058,3.058,218.376,192.725,185.397
0.207,18.908,3.105,3.105,218.470,192.861,185.543
0.208,19.105,3.149,3.149,218.554,192.984,185.672
0.210,19.271,3.188,3.188,218.624,193.089,185.779
0.211,19.397,3.220,3.220,218.677,193.171,185.860
0.212,19.479,3.243,3.243,218.710,193.227,185.909
0.213,19.523,3.254,3.254,218.727,193.260,185.933
0.214,19.539,3.256,3.256,218.731,193.275,185.936
0.216,19.553,3.251,3.251,218.725,193.275,185.923
0.217,19.581,3.240,3.240,218.713,193.264,185.900
0.218,19.617,3.228,3.228,218.698,193.246,185.871
0.219,19.655,3.215,3.215,218.684,193.225,185.843
0.220,19.686,3.205,3.205,218.675,193.205,185.821
0.222,19.705,3.200,3.200,218.673,193.191,185.809
0.223,19.717,3.202,3.202,218.683,193.185,185.814
0.224,19.753,3.212,3.212,218.707,193.191,185.839
0.225,19.820,3.228,3.228,218.747,193.212,185.888
0.227,19.912,3.248,3.248,218.800,193.245,185.955
0.228,20.025,3.272,3.272,218.864,193.288,186.038
0.229,20.153,3.296,3.296,218.935,193.338,186.132
0.230,20.290,3.321,3.321,219.010,193.393,186.233
0.231,20.432,3.344,3.344,219.088,193.451,186.337
0.233,20.572,3.363,3.363,219.164,193.508,186.440
0.234,20.706,3.378,3.378,219.236,193.564,186.537
0.235,20.827,3.389,3.389,219.302,193.614,186.626
0.236,20.930,3.397,3.397,219.357,193.657,186.701
0.238,21.010,3.403,3.403,219.401,193.691,186.759
0.239,21.066,3.406,3.406,219.432,193.715,186.800
0.240,21.101,3.409,3.409,219.451,193.730,186.824
0.241,21.118,3.411,3.411,219.461,193.738,186.836
0.242,21.120,3.412,3.412,219.462,193.739,186.837
0.244,21.130,3.415,3.415,219.457,193.735,186.830
0.245,21.149,3.418,3.418,219.447,193.727,186.816
0.246,21.173,3.421,3.421,219.434,193.717,186.799
0.247,21.200,3.424,3.424,219.418,193.704,186.781
0.248,21.226,3.428,3.428,219.403,193.692,186.763
0.250,21.250,3.431,3.431,219.388,193.680,186.749
0.251,21.267,3.435,3.435,219.377,193.670,186.741
0.252,21.278,3.438,3.438,219.369,193.662,186.738
0.253,21.285,3.441,3.441,219.366,193.657,186.741
0.255,21.293,3.443,3.443,219.368,193.653,186.748
0.256,21.305,3.443,3.443,219.375,193.652,186.758
0.257,21.324,3.443,3.443,219.389,193.653,186.770
0.258,21.350,3.440,3.440,219.410,193.656,186.785
0.259,21.383,3.435,3.435,219.438,193.660,186.801
0.261,21.424,3.428,3.428,219.475,193.667,186.817
0.262,21.473,3.418,3.418,219.521,193.676,186.833
0.263,21.532,3.404,3.404,219.577,193.686,186.847
0.264,21.600,3.387,3.387,219.643,193.698,186.860
0.266,21.678,3.367,3.367,219.719,193.710,186.872
0.267,21.767,3.343,3.343,219.806,193.722,186.884
0.268,21.866,3.317,3.317,219.904,193.733,186.897
0.269,21.975,3.289,3.289,220.012,193.740,186.912
0.270,22.096,3.258,3.258,220.132,193.743,186.930
0.272,22.229,3.225,3.225,220.262,193.741,186.953
0.273,22.374,3.191,3.191,220.404,193.732,186.981
0.274,22.532,3.155,3.155,220.557,193.715,187.016
0.275,22.704,3.119,3.119,220.722,193.690,187.058
0.276,22.891,3.083,3.083,220.898,193.654,187.109
0.278,23.093,3.048,3.048,221.086,193.608,187.169
0.279,23.308,3.015,3.015,221.281,193.551,187.238
0.280,23.532,2.985,2.985,221.481,193.484,187.314
0.281,23.763,2.959,2.959,221.683,193.409,187.396
0.283,23.997,2.937,2.937,221.883,193.324,187.484
0.284,24.231,2.921,2.921,222.078,193.233,187.576
0.285,24.463,2.909,2.909,222.265,193.133,187.671
0.286,24.690,2.903,2.903,222.441,193.028,187.768
0.287,24.909,2.900,2.900,222.601,192.916,187.866
0.289,25.118,2.900,2.900,222.744,192.799,187.965
0.290,25.315,2.902,2.902,222.866,192.678,188.062
0.291,25.502,2.907,2.907,222.966,192.553,188.158
0.292,25.680,2.912,2.912,223.045,192.425,188.252
0.294,25.851,2.918,2.918,223.107,192.294,188.344
0.295,26.017,2.924,2.924,223.153,192.162,188.433
0.296,26.179,2.931,2.931,223.186,192.029,188.521
0.297,26.339,2.937,2.937,223.208,191.896,188.605
0.298,26.494,2.945,2.945,223.222,191.765,188.688
0.300,26.647,2.953,2.953,223.230,191.634,188.767
0.301,26.796,2.962,2.962,223.234,191.507,188.843
0.302,26.940,2.972,2.972,223.237,191.382,188.916
0.303,27.079,2.984,2.984,223.240,191.262,188.985
0.305,27.212,2.996,2.996,223.245,191.147,189.052
0.306,27.339,3.009,3.009,223.251,191.037,189.114
0.307,27.459,3.021,3.021,223.258,190.932,189.174
0.308,27.572,3.033,3.033,223.264,190.834,189.230
0.309,27.677,3.042,3.042,223.269,190.744,189.283
0.311,27.774,3.050,3.050,223.272,190.660,189.333
0.312,27.863,3.054,3.054,223.273,190.585,189.379
0.313,27.942,3.054,3.054,223.271,190.519,189.423
0.314,28.012,3.050,3.050,223.266,190.462,189.463
0.315,28.073,3.042,3.042,223.256,190.415,189.501
0.317,28.126,3.033,3.033,223.241,190.378,189.535
0.318,28.172,3.022,3.022,223.223,190.349,189.566
0.319,28.211,3.012,3.012,223.205,190.328,189.593
0.320,28.243,3.005,3.005,223.189,190.311,189.616
0.322,28.269,3.000,3.000,223.179,190.295,189.634
0.323,28.289,3.001,3.001,223.176,190.280,189.646
0.324,28.310,3.007,3.007,223.183,190.262,189.653
0.325,28.341,3.020,3.020,223.204,190.239,189.652
0.326,28.389,3.039,3.039,223.241,190.209,189.644
0.328,28.459,3.063,3.063,223.297,190.169,189.629
0.329,28.555,3.092,3.092,223.374,190.118,189.605
0.330,28.678,3.125,3.125,223.475,190.054,189.573
0.331,28.826,3.163,3.163,223.594,189.976,189.535
0.333,28.991,3.204,3.204,223.728,189.889,189.494
0.334,29.168,3.249,3.249,223.871,189.792,189.452
0.335,29.352,3.296,3.296,224.017,189.688,189.414
0.336,29.536,3.345,3.345,224.162,189.579,189.382
0.337,29.715,3.394,3.394,224.300,189.467,189.358
0.339,29.885,3.444,3.444,224.425,189.353,189.347
0.340,30.042,3.493,3.493,224.533,189.239,189.350
0.341,30.185,3.540,3.540,224.618,189.126,189.372
0.342,30.314,3.585,3.585,224.675,189.018,189.415
0.343,30.439,3.627,3.627,224.701,188.915,189.480
0.345,30.569,3.664,3.664,224.700,188.817,189.564
0.346,30.708,3.698,3.698,224.676,188.724,189.666
0.347,30.857,3.728,3.728,224.636,188.637,189.779
0.348,31.013,3.754,3.754,224.583,188.557,189.903
0.350,31.175,3.777,3.777,224.522,188.482,190.032
0.351,31.336,3.797,3.797,224.459,188.413,190.164
0.352,31.493,3.814,3.814,224.399,188.351,190.295
0.353,31.641,3.828,3.828,224.346,188.295,190.421
0.354,31.776,3.840,3.840,224.305,188.245,190.540
0.356,31.894,3.850,3.850,224.282,188.203,190.648
0.357,31.996,3.859,3.859,224.278,188.166,190.743
0.358,32.088,3.868,3.868,224.291,188.134,190.827
0.359,32.175,3.878,3.878,224.320,188.104,190.903
0.361,32.262,3.889,3.889,224.363,188.074,190.974
0.362,32.353,3.902,3.902,224.416,188.043,191.041
0.363,32.449,3.918,3.918,224.478,188.008,191.106
0.364,32.553,3.938,3.938,224.546,187.967,191.172
0.365,32.664,3.963,3.963,224.619,187.920,191.242
0.367,32.784,3.991,3.991,224.693,187.862,191.317
0.368,32.915,4.022,4.022,224.767,187.794,191.400
0.369,33.058,4.055,4.055,224.839,187.712,191.493
0.370,33.214,4.091,4.091,224.907,187.618,191.596
0.371,33.379,4.129,4.129,224.971,187.513,191.707
0.373,33.552,4.168,4.168,225.031,187.402,191.824
0.374,33.728,4.208,4.208,225.087,187.286,191.945
0.375,33.905,4.248,4.248,225.138,187.169,192.068
0.376,34.079,4.288,4.288,225.184,187.054,192.190
0.378,34.247,4.327,4.327,225.225,186.943,192.309
0.379,34.406,4.365,4.365,225.260,186.839,192.424
0.380,34.552,4.400,4.400,225.290,186.745,192.533
0.381,34.683,4.432,4.432,225.315,186.664,192.632
0.382,34.795,4.461,4.461,225.333,186.599,192.721
0.384,34.889,4.486,4.486,225.345,186.548,192.799
0.385,34.969,4.507,4.507,225.354,186.510,192.869
0.386,35.038,4.523,4.523,225.359,186.482,192.932
0.387,35.099,4.536,4.536,225.362,186.462,192.989
0.389,35.154,4.547,4.547,225.364,186.447,193.043
0.390,35.207,4.557,4.557,225.365,186.436,193.094
0.391,35.259,4.566,4.566,225.368,186.426,193.145
0.392,35.313,4.576,4.576,225.373,186.414,193.198
0.393,35.371,4.587,4.587,225.381,186.399,193.253
0.395,35.435,4.600,4.600,225.393,186.378,193.312
0.396,35.508,4.616,4.616,225.411,186.349,193.377
0.397,35.591,4.634,4.634,225.432,186.313,193.449
0.398,35.683,4.656,4.656,225.457,186.272,193.527
0.400,35.782,4.681,4.681,225.483,186.226,193.611
0.401,35.888,4.709,4.709,225.510,186.177,193.701
0.402,36.000,4.740,4.740,225.535,186.127,193.798
0.403,36.117,4.775,4.775,225.559,186.077,193.901
0.404,36.238,4.814,4.814,225.579,186.028,194.010
0.406,36.363,4.856,4.856,225.595,185.982,194.126
0.407,36.493,4.901,4.901,225.604,185.941,194.248
0.408,36.626,4.945,4.945,225.607,185.905,194.376
0.409,36.763,4.988,4.988,225.602,185.876,194.510
0.410,36.902,5.028,5.028,225.592,185.853,194.646
0.412,37.039,5.063,5.063,225.580,185.836,194.782
0.413,37.170,5.093,5.093,225.568,185.824,194.912
0.414,37.293,5.114,5.114,225.561,185.816,195.034
0.415,37.403,5.127,5.127,225.560,185.811,195.145
0.417,37.499,5.134,5.134,225.570,185.809,195.239
0.418,37.577,5.138,5.138,225.591,185.809,195.315
0.419,37.642,5.142,5.142,225.629,185.811,195.368
0.420,37.705,5.149,5.149,225.685,185.814,195.395
0.421,37.782,5.162,5.162,225.763,185.816,195.392
0.423,37.887,5.184,5.184,225.862,185.817,195.359
0.424,38.019,5.218,5.218,225.981,185.815,195.302
0.425,38.173,5.268,5.268,226.114,185.806,195.227
0.426,38.343,5.330,5.330,226.259,185.788,195.139
0.428,38.525,5.399,5.399,226.412,185.759,195.045
0.429,38.713,5.469,5.469,226.569,185.716,194.950
0.430,38.903,5.534,5.534,226.726,185.657,194.862
0.431,39.092,5.590,5.590,226.880,185.578,194.785
0.432,39.279,5.630,5.630,227.027,185.478,194.725
0.434,39.467,5.648,5.648,227.163,185.354,194.690
0.435,39.661,5.639,5.639,227.285,185.203,194.684
0.436,39.868,5.602,5.602,227.392,185.027,194.708
0.437,40.090,5.543,5.543,227.484,184.831,194.758
0.438,40.326,5.467,5.468,227.562,184.621,194.828
0.440,40.572,5.380,5.380,227.628,184.400,194.916
0.441,40.823,5.287,5.288,227.682,184.176,195.015
0.442,41.074,5.195,5.195,227.725,183.952,195.121
0.443,41.319,5.108,5.108,227.758,183.735,195.230
0.445,41.553,5.032,5.032,227.782,183.529,195.336
0.446,41.767,4.971,4.971,227.799,183.340,195.436
0.447,41.957,4.924,4.924,227.808,183.172,195.525
0.448,42.116,4.889,4.889,227.811,183.032,195.598
0.449,42.245,4.863,4.863,227.810,182.917,195.656
0.451,42.348,4.845,4.845,227.805,182.823,195.702
0.452,42.432,4.832,4.832,227.798,182.748,195.738
0.453,42.501,4.822,4.822,227.791,182.687,195.768
0.454,42.559,4.812,4.812,227.784,182.636,195.794
0.456,42.611,4.802,4.802,227.780,182.590,195.820
0.457,42.663,4.790,4.790,227.779,182.547,195.848
0.458,42.719,4.776,4.777,227.784,182.502,195.882
0.459,42.785,4.762,4.762,227.795,182.452,195.923
0.460,42.868,4.747,4.747,227.814,182.391,195.976
0.462,42.970,4.731,4.732,227.842,182.318,196.042
0.463,43.092,4.716,4.716,227.877,182.232,196.120
0.464,43.229,4.701,4.701,227.920,182.135,196.207
0.465,43.378,4.686,4.686,227.967,182.030,196.302
0.467,43.536,4.672,4.672,228.017,181.917,196.401
0.468,43.699,4.659,4.658,228.070,181.800,196.502
0.469,43.865,4.646,4.645,228.123,181.679,196.602
0.470,44.030,4.634,4.632,228.175,181.557,196.699
0.471,44.190,4.621,4.620,228.224,181.434,196.790
0.473,44.343,4.609,4.608,228.268,181.314,196.873
0.474,44.485,4.597,4.596,228.307,181.198,196.946
0.475,44.615,4.585,4.585,228.340,181.087,197.006
0.476,44.734,4.572,4.574,228.366,180.982,197.054
0.477,44.843,4.559,4.563,228.388,180.882,197.092
0.479,44.942,4.545,4.551,228.406,180.789,197.120
0.480,45.034,4.531,4.538,228.421,180.700,197.139
0.481,45.118,4.516,4.523,228.436,180.618,197.151
0.482,45.196,4.500,4.506,228.450,180.541,197.157
0.484,45.268,4.483,4.487,228.465,180.471,197.158
0.485,45.335,4.464,4.465,228.482,180.406,197.154
0.486,45.398,4.444,4.439,228.502,180.348,197.148
0.487,45.456,4.423,4.411,228.527,180.295,197.139
0.488,45.513,4.401,4.382,228.556,180.248,197.130
0.490,45.570,4.378,4.354,228.590,180.203,197.122
0.491,45.628,4.355,4.329,228.627,180.158,197.117
0.492,45.691,4.332,4.307,228.668,180.110,197.117
0.493,45.760,4.308,4.290,228.710,180.056,197.124
0.495,45.837,4.286,4.280,228.754,179.994,197.139
0.496,45.927,4.264,4.277,228.799,179.920,197.165
