"T","Distance","Radius","FreeRadius","X","Y","Z"
0.000,0.000,1.466,1.466,-77.327,-60.850,-4.430
0.001,0.092,1.509,1.509,-77.250,-60.894,-4.405
0.003,0.182,1.550,1.550,-77.175,-60.937,-4.379
0.004,0.270,1.589,1.589,-77.102,-60.978,-4.355
0.006,0.353,1.624,1.624,-77.033,-61.018,-4.330
0.007,0.430,1.654,1.654,-76.969,-61.054,-4.305
0.009,0.500,1.678,1.678,-76.911,-61.086,-4.281
0.010,0.562,1.694,1.694,-76.861,-61.113,-4.258
0.011,0.614,1.701,1.701,-76.820,-61.134,-4.235
0.013,0.655,1.702,1.702,-76.789,-61.149,-4.212
0.014,0.686,1.697,1.697,-76.769,-61.157,-4.190
0.016,0.708,1.690,1.690,-76.759,-61.160,-4.170
0.017,0.725,1.682,1.682,-76.756,-61.158,-4.154
0.019,0.737,1.675,1.675,-76.756,-61.156,-4.142
0.020,0.742,1.673,1.673,-76.756,-61.154,-4.137
0.021,0.747,1.676,1.676,-76.754,-61.157,-4.141
0.023,0.765,1.685,1.685,-76.745,-61.165,-4.155
0.024,0.801,1.701,1.701,-76.727,-61.182,-4.181
0.026,0.858,1.723,1.723,-76.697,-61.209,-4.220
0.027,0.940,1.752,1.752,-76.651,-61.250,-4.275
0.028,1.048,1.787,1.787,-76.588,-61.305,-4.344
0.030,1.177,1.828,1.828,-76.513,-61.370,-4.426
0.031,1.319,1.876,1.876,-76.429,-61.442,-4.515
0.033,1.468,1.928,1.928,-76.341,-61.517,-4.608
0.034,1.618,1.982,1.982,-76.252,-61.593,-4.702
0.036,1.763,2.034,2.034,-76.166,-61.666,-4.794
0.037,1.895,2.083,2.083,-76.088,-61.732,-4.878
0.038,2.009,2.126,2.126,-76.022,-61.787,-4.952
0.040,2.098,2.158,2.158,-75.971,-61.830,-5.011
0.041,2.157,2.180,2.180,-75.939,-61.856,-5.054
0.043,2.192,2.190,2.190,-75.923,-61.870,-5.082
0.044,2.212,2.192,2.192,-75.918,-61.877,-5.099
0.046,2.223,2.189,2.189,-75.920,-61.883,-5.109
0.047,2.236,2.184,2.184,-75.924,-61.894,-5.115
0.048,2.257,2.180,2.180,-75.926,-61.913,-5.122
0.050,2.294,2.181,2.181,-75.920,-61.948,-5.133
0.051,2.355,2.188,2.188,-75.904,-62.004,-5.152
0.053,2.449,2.204,2.204,-75.871,-62.086,-5.183
0.054,2.582,2.229,2.229,-75.818,-62.199,-5.229
0.056,2.754,2.262,2.262,-75.744,-62.342,-5.290
0.057,2.956,2.304,2.304,-75.650,-62.507,-5.360
0.058,3.181,2.355,2.355,-75.540,-62.689,-5.434
0.060,3.421,2.414,2.414,-75.415,-62.879,-5.508
0.061,3.666,2.481,2.481,-75.277,-63.070,-5.577
0.063,3.911,2.556,2.556,-75.129,-63.255,-5.636
0.064,4.147,2.637,2.637,-74.972,-63.427,-5.680
0.066,4.371,2.721,2.721,-74.810,-63.579,-5.704
0.067,4.579,2.806,2.806,-74.644,-63.704,-5.703
0.068,4.773,2.891,2.891,-74.476,-63.798,-5.675
0.070,4.959,2.972,2.972,-74.310,-63.865,-5.624
0.071,5.139,3.049,3.049,-74.150,-63.910,-5.555
0.073,5.314,3.119,3.119,-73.997,-63.938,-5.473
0.074,5.482,3.182,3.182,-73.857,-63.954,-5.383
0.075,5.638,3.236,3.236,-73.732,-63.964,-5.290
0.077,5.779,3.281,3.281,-73.625,-63.973,-5.199
0.078,5.900,3.316,3.316,-73.540,-63.985,-5.115
0.080,5.997,3.340,3.340,-73.479,-64.006,-5.042
0.081,6.071,3.353,3.353,-73.446,-64.040,-4.985
0.083,6.134,3.353,3.353,-73.438,-64.087,-4.944
0.084,6.198,3.344,3.344,-73.449,-64.143,-4.916
0.085,6.268,3.327,3.327,-73.476,-64.206,-4.899
0.087,6.345,3.303,3.303,-73.512,-64.274,-4.891
0.088,6.426,3.276,3.276,-73.553,-64.343,-4.890
0.090,6.505,3.247,3.247,-73.595,-64.411,-4.893
0.091,6.579,3.218,3.218,-73.631,-64.475,-4.899
0.093,6.643,3.191,3.191,-73.658,-64.532,-4.905
0.094,6.693,3.165,3.165,-73.671,-64.580,-4.909
0.095,6.732,3.142,3.142,-73.668,-64.619,-4.910
0.097,6.766,3.122,3.122,-73.655,-64.651,-4.910
0.098,6.801,3.104,3.104,-73.636,-64.680,-4.910
0.100,6.836,3.090,3.090,-73.614,-64.707,-4.910
0.101,6.871,3.079,3.079,-73.595,-64.736,-4.912
0.103,6.907,3.071,3.071,-73.582,-64.770,-4.917
0.104,6.949,3.062,3.062,-73.580,-64.811,-4.926
0.105,7.003,3.049,3.049,-73.593,-64.862,-4.940
0.107,7.078,3.027,3.027,-73.626,-64.926,-4.961
0.108,7.178,2.993,2.993,-73.681,-65.004,-4.988
0.110,7.303,2.943,2.943,-73.757,-65.097,-5.024
0.111,7.451,2.872,2.872,-73.851,-65.203,-5.067
0.113,7.621,2.779,2.780,-73.962,-65.321,-5.120
0.114,7.810,2.668,2.669,-74.086,-65.449,-5.182
0.115,8.017,2.544,2.546,-74.222,-65.588,-5.253
0.117,8.239,2.414,2.416,-74.367,-65.735,-5.335
0.118,8.474,2.283,2.285,-74.518,-65.889,-5.427
0.120,8.721,2.159,2.160,-74.675,-66.050,-5.531
0.121,8.978,2.045,2.046,-74.834,-66.216,-5.646
0.123,9.242,1.949,1.947,-74.994,-66.385,-5.771
0.124,9.511,1.869,1.864,-75.154,-66.555,-5.903
0.125,9.779,1.804,1.797,-75.313,-66.722,-6.040
0.127,10.045,1.752,1.744,-75.470,-66.886,-6.178
0.128,10.304,1.713,1.704,-75.625,-67.043,-6.314
0.130,10.553,1.683,1.677,-75.776,-67.190,-6.447
0.131,10.789,1.662,1.661,-75.922,-67.325,-6.573
0.132,11.008,1.647,1.654,-76.063,-67.446,-6.689
0.134,11.207,1.638,1.656,-76.197,-67.551,-6.793
0.135,11.386,1.632,1.663,-76.325,-67.638,-6.883
0.137,11.547,1.628,1.673,-76.446,-67.712,-6.959
0.138,11.692,1.624,1.684,-76.562,-67.775,-7.021
0.140,11.824,1.617,1.693,-76.672,-67.830,-7.067
0.141,11.945,1.607,1.697,-76.777,-67.881,-7.099
0.142,12.059,1.591,1.694,-76.878,-67.932,-7.116
0.144,12.170,1.571,1.685,-76.975,-67.984,-7.117
0.145,12.281,1.548,1.672,-77.068,-68.042,-7.102
0.147,12.397,1.525,1.655,-77.159,-68.109,-7.072
0.148,12.523,1.503,1.636,-77.247,-68.187,-7.026
0.150,12.657,1.485,1.618,-77.332,-68.272,-6.968
0.151,12.795,1.472,1.602,-77.412,-68.362,-6.901
0.152,12.933,1.467,1.590,-77.487,-68.453,-6.829
0.154,13.067,1.470,1.581,-77.555,-68.541,-6.755
0.155,13.192,1.477,1.575,-77.616,-68.624,-6.683
0.157,13.304,1.488,1.572,-77.669,-68.696,-6.617
0.158,13.397,1.501,1.571,-77.712,-68.756,-6.559
0.160,13.467,1.513,1.571,-77.746,-68.799,-6.515
0.161,13.510,1.523,1.572,-77.768,-68.822,-6.486
0.162,13.529,1.528,1.573,-77.780,-68.827,-6.472
0.164,13.537,1.529,1.574,-77.784,-68.820,-6.470
0.165,13.552,1.526,1.574,-77.782,-68.806,-6.476
0.167,13.572,1.521,1.575,-77.778,-68.791,-6.487
0.168,13.589,1.516,1.575,-77.772,-68.779,-6.498
0.170,13.599,1.510,1.575,-77.768,-68.777,-6.507
0.171,13.612,1.506,1.574,-77.767,-68.789,-6.510
0.172,13.645,1.504,1.574,-77.773,-68.822,-6.504
0.174,13.708,1.504,1.572,-77.786,-68.880,-6.484
0.175,13.802,1.506,1.569,-77.808,-68.965,-6.451
0.177,13.920,1.507,1.563,-77.838,-69.071,-6.408
0.178,14.057,1.506,1.553,-77.872,-69.194,-6.359
0.179,14.205,1.502,1.540,-77.911,-69.327,-6.308
0.181,14.357,1.493,1.521,-77.951,-69.466,-6.260
0.182,14.506,1.479,1.496,-77.991,-69.603,-6.217
0.184,14.647,1.458,1.466,-78.028,-69.735,-6.184
0.185,14.773,1.432,1.432,-78.062,-69.854,-6.165
0.187,14.879,1.403,1.397,-78.091,-69.956,-6.165
0.188,14.965,1.374,1.364,-78.112,-70.037,-6.186
0.189,15.040,1.344,1.335,-78.126,-70.099,-6.226
0.191,15.116,1.318,1.312,-78.134,-70.147,-6.284
0.192,15.198,1.295,1.298,-78.136,-70.185,-6.357
0.194,15.290,1.277,1.293,-78.133,-70.219,-6.443
0.195,15.392,1.265,1.297,-78.126,-70.253,-6.539
0.197,15.503,1.258,1.308,-78.114,-70.292,-6.642
0.198,15.622,1.255,1.323,-78.100,-70.340,-6.750
0.199,15.750,1.257,1.341,-78.083,-70.402,-6.860
0.201,15.888,1.264,1.359,-78.064,-70.483,-6.971
0.202,16.036,1.274,1.378,-78.044,-70.581,-7.080
0.204,16.191,1.289,1.394,-78.022,-70.692,-7.186
0.205,16.349,1.307,1.408,-77.999,-70.810,-7.289
0.207,16.506,1.327,1.421,-77.976,-70.930,-7.387
0.208,16.658,1.348,1.432,-77.952,-71.048,-7.479
0.209,16.798,1.369,1.443,-77.928,-71.157,-7.564
0.211,16.924,1.390,1.454,-77.904,-71.253,-7.642
0.212,17.030,1.408,1.464,-77.880,-71.331,-7.710
0.214,17.113,1.425,1.474,-77.857,-71.385,-7.769
0.215,17.174,1.438,1.484,-77.834,-71.413,-7.817
0.217,17.220,1.449,1.493,-77.812,-71.420,-7.858
0.218,17.261,1.457,1.499,-77.792,-71.409,-7.892
0.219,17.302,1.461,1.502,-77.774,-71.386,-7.921
0.221,17.347,1.462,1.502,-77.758,-71.356,-7.949
0.222,17.392,1.460,1.498,-77.745,-71.322,-7.976
0.224,17.436,1.455,1.488,-77.734,-71.291,-8.005
0.225,17.478,1.447,1.475,-77.727,-71.265,-8.038
0.226,17.520,1.438,1.460,-77.723,-71.251,-8.077
0.228,17.566,1.429,1.444,-77.724,-71.251,-8.124
0.229,17.621,1.420,1.430,-77.727,-71.266,-8.177
0.231,17.685,1.413,1.417,-77.734,-71.291,-8.235
0.232,17.756,1.409,1.409,-77.743,-71.325,-8.296
0.234,17.831,1.408,1.406,-77.753,-71.364,-8.360
0.235,17.908,1.411,1.408,-77.764,-71.405,-8.424
0.236,17.984,1.416,1.412,-77.775,-71.446,-8.487
0.238,18.056,1.423,1.419,-77.785,-71.484,-8.547
0.239,18.121,1.430,1.427,-77.795,-71.517,-8.602
0.241,18.176,1.436,1.435,-77.802,-71.540,-8.652
0.242,18.223,1.441,1.441,-77.808,-71.556,-8.695
0.244,18.261,1.444,1.444,-77.813,-71.565,-8.732
0.245,18.293,1.445,1.446,-77.818,-71.573,-8.763
0.246,18.319,1.446,1.447,-77.823,-71.580,-8.788
0.248,18.343,1.448,1.449,-77.829,-71.592,-8.807
0.249,18.367,1.452,1.453,-77.838,-71.610,-8.821
0.251,18.398,1.460,1.461,-77.850,-71.637,-8.830
0.252,18.441,1.473,1.473,-77.866,-71.676,-8.834
0.254,18.499,1.492,1.492,-77.886,-71.731,-8.833
0.255,18.576,1.517,1.516,-77.912,-71.804,-8.829
0.256,18.670,1.545,1.545,-77.944,-71.891,-8.821
0.258,18.779,1.577,1.577,-77.986,-71.991,-8.812
0.259,18.901,1.611,1.610,-78.038,-72.102,-8.803
0.261,19.036,1.644,1.644,-78.102,-72.220,-8.795
0.262,19.183,1.677,1.678,-78.180,-72.344,-8.789
0.264,19.341,1.708,1.709,-78.274,-72.472,-8.787
0.265,19.510,1.736,1.738,-78.384,-72.601,-8.790
0.266,19.692,1.763,1.766,-78.513,-72.728,-8.799
0.268,19.885,1.790,1.793,-78.661,-72.851,-8.816
0.269,20.090,1.816,1.820,-78.825,-72.970,-8.840
0.271,20.300,1.844,1.849,-78.999,-73.084,-8.870
0.272,20.511,1.874,1.879,-79.177,-73.193,-8.904
0.274,20.719,1.907,1.912,-79.353,-73.296,-8.942
0.275,20.917,1.943,1.947,-79.520,-73.394,-8.983
0.276,21.100,1.980,1.984,-79.673,-73.486,-9.026
0.278,21.264,2.018,2.021,-79.806,-73.571,-9.069
0.279,21.403,2.056,2.058,-79.913,-73.649,-9.112
0.281,21.514,2.093,2.094,-79.988,-73.721,-9.153
0.282,21.601,2.127,2.127,-80.030,-73.786,-9.191
0.283,21.671,2.158,2.157,-80.043,-73.844,-9.228
0.285,21.735,2.185,2.185,-80.034,-73.897,-9.264
0.286,21.800,2.209,2.209,-80.006,-73.945,-9.297
0.288,21.869,2.232,2.231,-79.965,-73.989,-9.330
0.289,21.939,2.252,2.252,-79.917,-74.030,-9.361
0.291,22.010,2.272,2.272,-79.865,-74.068,-9.392
0.292,22.078,2.292,2.292,-79.816,-74.104,-9.421
0.293,22.140,2.312,2.312,-79.774,-74.138,-9.451
0.295,22.194,2.332,2.332,-79.744,-74.172,-9.481
0.296,22.241,2.351,2.351,-79.727,-74.204,-9.511
0.298,22.285,2.367,2.367,-79.725,-74.235,-9.543
0.299,22.332,2.378,2.378,-79.740,-74.263,-9.577
0.301,22.388,2.383,2.383,-79.771,-74.289,-9.615
0.302,22.457,2.379,2.379,-79.822,-74.312,-9.656
0.303,22.543,2.366,2.365,-79.892,-74.331,-9.703
0.305,22.650,2.343,2.343,-79.984,-74.346,-9.755
0.306,22.779,2.314,2.314,-80.098,-74.356,-9.814
0.308,22.933,2.284,2.284,-80.237,-74.361,-9.881
0.309,23.106,2.258,2.258,-80.394,-74.361,-9.952
0.311,23.291,2.238,2.238,-80.564,-74.356,-10.026
0.312,23.480,2.231,2.231,-80.739,-74.344,-10.099
0.313,23.667,2.239,2.239,-80.912,-74.327,-10.167
0.315,23.844,2.265,2.265,-81.075,-74.303,-10.228
0.316,24.003,2.305,2.305,-81.223,-74.273,-10.278
0.318,24.137,2.356,2.356,-81.348,-74.236,-10.314
0.319,24.243,2.411,2.411,-81.442,-74.191,-10.332
0.321,24.320,2.467,2.467,-81.499,-74.140,-10.331
0.322,24.384,2.519,2.519,-81.519,-74.083,-10.310
0.323,24.449,2.563,2.563,-81.511,-74.028,-10.276
0.325,24.515,2.595,2.595,-81.485,-73.980,-10.239
0.326,24.574,2.613,2.613,-81.452,-73.945,-10.204
0.328,24.615,2.618,2.618,-81.422,-73.931,-10.180
0.329,24.636,2.607,2.607,-81.406,-73.942,-10.174
0.330,24.685,2.580,2.580,-81.413,-73.986,-10.194
0.332,24.792,2.537,2.537,-81.454,-74.069,-10.247
0.333,24.972,2.476,2.476,-81.540,-74.196,-10.342
0.335,25.236,2.397,2.397,-81.676,-74.372,-10.482
0.336,25.570,2.307,2.307,-81.857,-74.589,-10.661
0.338,25.957,2.214,2.214,-82.070,-74.836,-10.869
0.339,26.379,2.123,2.123,-82.307,-75.102,-11.096
0.340,26.819,2.043,2.043,-82.554,-75.378,-11.333
0.342,27.257,1.980,1.980,-82.803,-75.652,-11.568
0.343,27.677,1.942,1.942,-83.042,-75.915,-11.793
0.345,28.061,1.935,1.935,-83.260,-76.154,-11.997
0.346,28.389,1.953,1.953,-83.447,-76.361,-12.171
0.348,28.646,1.990,1.990,-83.593,-76.525,-12.305
0.349,28.831,2.038,2.038,-83.696,-76.647,-12.398
0.350,28.954,2.089,2.089,-83.762,-76.735,-12.455
0.352,29.029,2.136,2.136,-83.796,-76.796,-12.480
0.353,29.073,2.171,2.171,-83.803,-76.840,-12.477
0.355,29.117,2.188,2.188,-83.788,-76.873,-12.453
0.356,29.178,2.188,2.188,-83.757,-76.904,-12.410
0.358,29.257,2.174,2.174,-83.715,-76.941,-12.354
0.359,29.353,2.152,2.152,-83.668,-76.992,-12.289
0.360,29.464,2.125,2.125,-83.619,-77.065,-12.220
0.362,29.593,2.097,2.097,-83.574,-77.163,-12.150
0.363,29.736,2.072,2.072,-83.531,-77.281,-12.080
0.365,29.891,2.054,2.054,-83.492,-77.413,-12.010
0.366,30.051,2.044,2.044,-83.456,-77.553,-11.940
0.368,30.213,2.038,2.038,-83.423,-77.695,-11.871
0.369,30.369,2.036,2.036,-83.394,-77.833,-11.804
0.370,30.515,2.035,2.035,-83.367,-77.960,-11.738
0.372,30.646,2.033,2.033,-83.345,-78.072,-11.674
0.373,30.756,2.029,2.029,-83.325,-78.162,-11.613
0.375,30.844,2.020,2.020,-83.309,-78.226,-11.555
0.376,30.913,2.007,2.007,-83.295,-78.266,-11.500
0.377,30.969,1.991,1.991,-83.282,-78.289,-11.451
0.379,31.016,1.974,1.974,-83.268,-78.300,-11.407
0.380,31.057,1.955,1.955,-83.253,-78.307,-11.370
0.382,31.092,1.938,1.938,-83.234,-78.313,-11.342
0.383,31.124,1.923,1.923,-83.212,-78.327,-11.322
0.385,31.163,1.911,1.911,-83.184,-78.352,-11.312
0.386,31.219,1.903,1.903,-83.149,-78.395,-11.313
0.387,31.300,1.896,1.896,-83.106,-78.463,-11.325
0.389,31.408,1.890,1.890,-83.054,-78.554,-11.349
0.390,31.541,1.884,1.884,-82.991,-78.667,-11.381
0.392,31.695,1.875,1.875,-82.918,-78.797,-11.418
0.393,31.867,1.862,1.862,-82.831,-78.940,-11.457
0.395,32.054,1.845,1.845,-82.731,-79.094,-11.497
0.396,32.254,1.823,1.823,-82.617,-79.253,-11.534
0.397,32.464,1.799,1.799,-82.487,-79.415,-11.565
0.399,32.683,1.774,1.774,-82.341,-79.576,-11.589
0.400,32.910,1.752,1.752,-82.177,-79.733,-11.601
0.402,33.144,1.735,1.735,-81.996,-79.881,-11.600
0.403,33.382,1.724,1.724,-81.803,-80.021,-11.589
0.405,33.621,1.723,1.723,-81.605,-80.152,-11.570
0.406,33.854,1.731,1.731,-81.406,-80.273,-11.543
0.407,34.078,1.747,1.747,-81.213,-80.382,-11.512
0.409,34.287,1.770,1.770,-81.032,-80.480,-11.478
0.410,34.476,1.798,1.798,-80.868,-80.566,-11.443
0.412,34.638,1.829,1.829,-80.727,-80.638,-11.409
0.413,34.768,1.862,1.862,-80.614,-80.697,-11.378
0.415,34.863,1.893,1.893,-80.535,-80.741,-11.352
0.416,34.924,1.923,1.923,-80.487,-80.772,-11.332
0.417,34.958,1.951,1.951,-80.465,-80.794,-11.317
0.419,34.975,1.974,1.974,-80.465,-80.808,-11.307
0.420,34.995,1.991,1.991,-80.482,-80.817,-11.301
0.422,35.023,2.003,2.003,-80.509,-80.824,-11.300
0.423,35.059,2.008,2.008,-80.544,-80.831,-11.303
0.425,35.097,2.004,2.004,-80.580,-80.841,-11.311
0.426,35.135,1.991,1.991,-80.613,-80.856,-11.322
0.427,35.172,1.971,1.971,-80.638,-80.879,-11.337
0.429,35.212,1.946,1.946,-80.653,-80.912,-11.355
0.430,35.261,1.917,1.917,-80.658,-80.956,-11.376
0.432,35.321,1.887,1.887,-80.655,-81.011,-11.398
0.433,35.393,1.855,1.855,-80.644,-81.078,-11.422
0.434,35.479,1.826,1.826,-80.626,-81.159,-11.446
0.436,35.580,1.799,1.799,-80.601,-81.255,-11.469
0.437,35.697,1.776,1.776,-80.572,-81.365,-11.491
0.439,35.829,1.755,1.755,-80.538,-81.492,-11.512
0.440,35.979,1.738,1.738,-80.500,-81.635,-11.530
0.442,36.145,1.724,1.724,-80.459,-81.795,-11.544
0.443,36.323,1.714,1.714,-80.416,-81.967,-11.557
0.444,36.507,1.707,1.707,-80.371,-82.146,-11.567
0.446,36.693,1.704,1.704,-80.324,-82.326,-11.575
0.447,36.876,1.704,1.704,-80.277,-82.502,-11.583
0.449,37.050,1.705,1.705,-80.229,-82.669,-11.590
0.450,37.210,1.708,1.708,-80.180,-82.821,-11.598
0.452,37.351,1.712,1.712,-80.133,-82.954,-11.606
0.453,37.468,1.716,1.716,-80.086,-83.061,-11.615
0.454,37.559,1.719,1.719,-80.040,-83.139,-11.626
0.456,37.627,1.720,1.720,-79.999,-83.191,-11.637
0.457,37.676,1.719,1.719,-79.965,-83.225,-11.648
0.459,37.709,1.715,1.715,-79.942,-83.248,-11.655
0.460,37.732,1.708,1.708,-79.933,-83.269,-11.658
0.462,37.759,1.696,1.696,-79.942,-83.294,-11.655
0.463,37.808,1.679,1.679,-79.973,-83.331,-11.644
0.464,37.890,1.656,1.656,-80.028,-83.389,-11.623
0.466,38.013,1.627,1.627,-80.111,-83.473,-11.591
0.467,38.185,1.594,1.594,-80.225,-83.593,-11.545
0.469,38.405,1.559,1.559,-80.370,-83.749,-11.487
0.470,38.663,1.526,1.526,-80.537,-83.932,-11.419
0.472,38.945,1.496,1.496,-80.720,-84.134,-11.346
0.473,39.240,1.473,1.473,-80.911,-84.346,-11.270
0.474,39.535,1.460,1.460,-81.102,-84.558,-11.194
0.476,39.820,1.459,1.459,-81.286,-84.763,-11.123
0.477,40.081,1.469,1.469,-81.455,-84.951,-11.060
0.479,40.306,1.488,1.488,-81.602,-85.114,-11.007
0.480,40.484,1.512,1.512,-81.719,-85.242,-10.969
0.481,40.607,1.540,1.540,-81.802,-85.331,-10.948
0.483,40.681,1.568,1.568,-81.854,-85.383,-10.939
0.484,40.718,1.595,1.595,-81.882,-85.407,-10.941
0.486,40.730,1.617,1.617,-81.892,-85.409,-10.947
0.487,40.746,1.633,1.633,-81.892,-85.395,-10.954
0.489,40.768,1.646,1.646,-81.887,-85.373,-10.958
0.490,40.793,1.657,1.657,-81.884,-85.349,-10.955
0.491,40.817,1.665,1.665,-81.890,-85.331,-10.940
0.493,40.854,1.673,1.673,-81.911,-85.324,-10.910
0.494,40.920,1.681,1.681,-81.953,-85.335,-10.861
0.496,41.017,1.691,1.691,-82.015,-85.366,-10.792
0.497,41.141,1.703,1.703,-82.095,-85.411,-10.709
0.499,41.286,1.716,1.716,-82.187,-85.470,-10.613
0.500,41.447,1.731,1.731,-82.288,-85.537,-10.508
0.501,41.617,1.747,1.747,-82.394,-85.611,-10.398
0.503,41.790,1.764,1.764,-82.500,-85.688,-10.285
0.504,41.961,1.781,1.781,-82.604,-85.765,-10.174
0.506,42.123,1.800,1.800,-82.701,-85.839,-10.066
0.507,42.271,1.818,1.818,-82.786,-85.906,-9.966
0.509,42.401,1.837,1.837,-82.858,-85.966,-9.876
0.510,42.516,1.857,1.857,-82.918,-86.018,-9.793
0.511,42.616,1.876,1.876,-82.967,-86.063,-9.716
0.513,42.706,1.896,1.896,-83.005,-86.101,-9.645
0.514,42.786,1.917,1.917,-83.034,-86.133,-9.578
0.516,42.859,1.937,1.937,-83.055,-86.160,-9.513
0.517,42.928,1.957,1.957,-83.069,-86.182,-9.449
0.519,42.996,1.977,1.977,-83.077,-86.200,-9.385
0.520,43.063,1.997,1.997,-83.079,-86.214,-9.319
0.521,43.133,2.016,2.016,-83.079,-86.226,-9.250
0.523,43.204,2.033,2.033,-83.075,-86.235,-9.180
0.524,43.274,2.049,2.049,-83.069,-86.244,-9.111
0.526,43.341,2.064,2.064,-83.061,-86.254,-9.044
0.527,43.405,2.076,2.076,-83.054,-86.265,-8.982
0.528,43.462,2.086,2.086,-83.047,-86.280,-8.928
0.530,43.512,2.093,2.093,-83.041,-86.299,-8.882
0.531,43.555,2.096,2.096,-83.037,-86.324,-8.846
0.533,43.595,2.096,2.096,-83.036,-86.357,-8.824
0.534,43.636,2.091,2.091,-83.039,-86.397,-8.817
0.536,43.686,2.082,2.082,-83.047,-86.446,-8.823
0.537,43.746,2.069,2.069,-83.058,-86.503,-8.840
0.538,43.817,2.051,2.051,-83.073,-86.568,-8.863
0.540,43.896,2.032,2.032,-83.091,-86.640,-8.891
0.541,43.983,2.011,2.011,-83.114,-86.719,-8.919
0.543,44.076,1.990,1.990,-83.139,-86.805,-8.944
0.544,44.174,1.970,1.970,-83.168,-86.896,-8.963
0.546,44.276,1.952,1.952,-83.200,-86.993,-8.973
0.547,44.384,1.937,1.937,-83.235,-87.096,-8.970
0.548,44.499,1.924,1.924,-83.273,-87.202,-8.953
0.550,44.620,1.913,1.913,-83.314,-87.313,-8.927
0.551,44.745,1.903,1.903,-83.359,-87.425,-8.895
0.553,44.873,1.894,1.894,-83.408,-87.538,-8.862
0.554,45.001,1.884,1.884,-83.462,-87.651,-8.832
0.556,45.130,1.873,1.873,-83.521,-87.763,-8.810
0.557,45.257,1.861,1.861,-83.586,-87.872,-8.800
0.558,45.384,1.848,1.848,-83.657,-87.977,-8.806
0.560,45.513,1.834,1.834,-83.734,-88.077,-8.833
0.561,45.649,1.821,1.821,-83.818,-88.171,-8.884
0.563,45.795,1.808,1.808,-83.907,-88.261,-8.958
0.564,45.950,1.796,1.796,-83.999,-88.347,-9.048
0.566,46.113,1.786,1.786,-84.092,-88.431,-9.152
0.567,46.282,1.779,1.779,-84.185,-88.516,-9.264
0.568,46.452,1.774,1.774,-84.275,-88.602,-9.380
0.570,46.621,1.772,1.772,-84.361,-88.691,-9.496
0.571,46.787,1.773,1.773,-84.439,-88.785,-9.607
0.573,46.947,1.777,1.777,-84.509,-88.886,-9.709
0.574,47.099,1.784,1.785,-84.569,-88.994,-9.798
0.575,47.245,1.795,1.796,-84.618,-89.110,-9.872
0.577,47.386,1.810,1.810,-84.657,-89.231,-9.933
0.578,47.523,1.828,1.827,-84.689,-89.354,-9.983
0.580,47.654,1.849,1.847,-84.714,-89.477,-10.022
0.581,47.779,1.871,1.869,-84.734,-89.596,-10.054
0.583,47.896,1.894,1.893,-84.752,-89.710,-10.079
0.584,48.004,1.918,1.917,-84.767,-89.814,-10.100
0.585,48.100,1.941,1.941,-84.782,-89.908,-10.117
0.587,48.183,1.964,1.965,-84.798,-89.987,-10.134
0.588,48.251,1.985,1.988,-84.816,-90.051,-10.150
