"T","Distance","Radius","FreeRadius","X","Y","Z"
0.000,0.000,0.971,0.971,-76.819,-54.392,-5.882
0.004,0.044,0.961,0.961,-76.827,-54.381,-5.924
0.008,0.089,0.952,0.952,-76.834,-54.372,-5.967
0.012,0.133,0.944,0.944,-76.841,-54.365,-6.010
0.016,0.177,0.939,0.939,-76.847,-54.362,-6.054
0.019,0.222,0.938,0.938,-76.852,-54.364,-6.099
0.023,0.269,0.942,0.942,-76.856,-54.373,-6.144
0.027,0.319,0.950,0.950,-76.858,-54.389,-6.191
0.031,0.373,0.961,0.961,-76.858,-54.414,-6.240
0.035,0.435,0.977,0.977,-76.856,-54.449,-6.291
0.039,0.506,1.006,1.006,-76.852,-54.496,-6.343
0.043,0.587,1.053,1.053,-76.844,-54.556,-6.398
0.047,0.680,1.109,1.109,-76.834,-54.629,-6.455
0.051,0.785,1.148,1.148,-76.821,-54.714,-6.514
0.054,0.898,1.154,1.154,-76.805,-54.808,-6.574
0.058,1.017,1.143,1.143,-76.787,-54.909,-6.635
0.062,1.139,1.135,1.135,-76.766,-55.014,-6.694
0.066,1.262,1.141,1.141,-76.744,-55.120,-6.753
0.070,1.383,1.158,1.158,-76.721,-55.224,-6.810
0.074,1.499,1.183,1.183,-76.696,-55.324,-6.863
0.078,1.608,1.210,1.210,-76.670,-55.417,-6.914
0.082,1.706,1.231,1.231,-76.643,-55.500,-6.959
0.086,1.792,1.243,1.243,-76.616,-55.571,-7.000
0.089,1.863,1.246,1.246,-76.588,-55.626,-7.035
0.093,1.922,1.239,1.239,-76.561,-55.668,-7.065
0.097,1.971,1.229,1.229,-76.533,-55.697,-7.092
0.101,2.016,1.222,1.222,-76.504,-55.718,-7.120
0.105,2.060,1.226,1.226,-76.475,-55.733,-7.150
0.109,2.108,1.239,1.239,-76.445,-55.744,-7.185
0.113,2.161,1.260,1.260,-76.414,-55.754,-7.228
0.117,2.223,1.283,1.283,-76.382,-55.766,-7.279
0.121,2.297,1.300,1.300,-76.349,-55.783,-7.343
0.125,2.385,1.305,1.305,-76.315,-55.807,-7.421
0.128,2.492,1.304,1.304,-76.279,-55.841,-7.516
0.132,2.620,1.308,1.308,-76.242,-55.888,-7.629
0.136,2.770,1.323,1.323,-76.205,-55.949,-7.761
0.140,2.936,1.351,1.351,-76.169,-56.021,-7.906
0.144,3.114,1.393,1.393,-76.136,-56.105,-8.059
0.148,3.299,1.447,1.447,-76.108,-56.198,-8.217
0.152,3.487,1.511,1.511,-76.088,-56.299,-8.374
0.156,3.673,1.585,1.585,-76.077,-56.407,-8.525
0.160,3.854,1.668,1.668,-76.078,-56.520,-8.667
0.163,4.027,1.759,1.759,-76.091,-56.637,-8.794
0.167,4.191,1.851,1.851,-76.120,-56.757,-8.901
0.171,4.345,1.926,1.926,-76.166,-56.878,-8.985
0.175,4.493,1.971,1.971,-76.231,-56.999,-9.039
0.179,4.641,1.987,1.987,-76.315,-57.118,-9.065
0.183,4.790,1.986,1.986,-76.413,-57.231,-9.068
0.187,4.940,1.974,1.974,-76.518,-57.337,-9.056
0.191,5.085,1.953,1.953,-76.627,-57.431,-9.035
0.195,5.219,1.926,1.926,-76.733,-57.510,-9.013
0.198,5.336,1.905,1.905,-76.832,-57.571,-8.998
0.202,5.431,1.907,1.907,-76.917,-57.611,-8.996
0.206,5.502,1.942,1.942,-76.984,-57.627,-9.014
0.210,5.566,1.994,1.994,-77.027,-57.615,-9.061
0.214,5.659,2.042,2.042,-77.041,-57.573,-9.142
0.218,5.805,2.073,2.073,-77.020,-57.497,-9.266
0.222,6.016,2.081,2.081,-76.963,-57.386,-9.435
0.226,6.282,2.065,2.065,-76.873,-57.246,-9.643
0.230,6.594,2.050,2.050,-76.757,-57.082,-9.882
0.233,6.940,2.068,2.068,-76.622,-56.901,-10.143
0.237,7.307,2.137,2.137,-76.473,-56.709,-10.419
0.241,7.683,2.249,2.249,-76.317,-56.512,-10.699
0.245,8.058,2.390,2.390,-76.160,-56.317,-10.977
0.249,8.418,2.553,2.553,-76.008,-56.129,-11.244
0.253,8.751,2.728,2.728,-75.868,-55.955,-11.492
0.257,9.046,2.896,2.896,-75.745,-55.801,-11.711
0.261,9.291,3.007,3.007,-75.646,-55.672,-11.894
0.265,9.476,3.007,3.007,-75.575,-55.575,-12.035
0.268,9.605,2.910,2.910,-75.532,-55.507,-12.136
0.272,9.687,2.804,2.804,-75.512,-55.463,-12.202
0.276,9.731,2.760,2.760,-75.513,-55.439,-12.239
0.280,9.755,2.776,2.776,-75.531,-55.432,-12.252
0.284,9.787,2.824,2.824,-75.563,-55.437,-12.247
0.288,9.835,2.880,2.880,-75.605,-55.450,-12.228
0.292,9.894,2.928,2.928,-75.655,-55.467,-12.201
0.296,9.957,2.954,2.954,-75.708,-55.484,-12.172
0.300,10.019,2.958,2.958,-75.762,-55.497,-12.145
0.304,10.073,2.947,2.947,-75.813,-55.502,-12.126
0.307,10.119,2.928,2.928,-75.858,-55.495,-12.120
0.311,10.162,2.908,2.908,-75.896,-55.476,-12.127
0.315,10.209,2.894,2.894,-75.929,-55.447,-12.144
0.319,10.262,2.889,2.889,-75.957,-55.410,-12.170
0.323,10.321,2.891,2.891,-75.981,-55.368,-12.203
0.327,10.383,2.900,2.900,-76.001,-55.322,-12.240
0.331,10.448,2.913,2.913,-76.018,-55.274,-12.279
0.335,10.512,2.929,2.929,-76.033,-55.226,-12.319
0.339,10.573,2.945,2.945,-76.047,-55.180,-12.357
0.342,10.628,2.958,2.958,-76.060,-55.139,-12.391
0.346,10.675,2.966,2.966,-76.073,-55.103,-12.419
0.350,10.712,2.970,2.970,-76.087,-55.075,-12.440
0.354,10.740,2.971,2.971,-76.101,-55.056,-12.452
0.358,10.761,2.972,2.972,-76.116,-55.043,-12.459
0.362,10.778,2.976,2.976,-76.132,-55.035,-12.461
0.366,10.794,2.983,2.983,-76.148,-55.033,-12.460
0.370,10.810,2.987,2.987,-76.164,-55.033,-12.458
0.374,10.826,2.979,2.979,-76.180,-55.035,-12.457
0.377,10.842,2.949,2.949,-76.195,-55.037,-12.458
0.381,10.858,2.911,2.911,-76.210,-55.039,-12.463
0.385,10.875,2.885,2.885,-76.224,-55.039,-12.474
0.389,10.898,2.877,2.877,-76.237,-55.036,-12.492
0.393,10.929,2.881,2.881,-76.249,-55.029,-12.520
0.397,10.969,2.886,2.886,-76.260,-55.017,-12.556
0.401,11.018,2.887,2.887,-76.269,-55.000,-12.601
0.405,11.074,2.880,2.880,-76.276,-54.980,-12.653
0.409,11.136,2.862,2.862,-76.282,-54.955,-12.710
0.412,11.203,2.839,2.839,-76.285,-54.928,-12.771
0.416,11.274,2.817,2.817,-76.285,-54.898,-12.836
0.420,11.348,2.800,2.800,-76.283,-54.865,-12.902
0.424,11.423,2.788,2.788,-76.278,-54.831,-12.968
0.428,11.498,2.782,2.782,-76.270,-54.795,-13.033
0.432,11.571,2.775,2.775,-76.258,-54.759,-13.096
0.436,11.643,2.759,2.759,-76.243,-54.721,-13.155
0.440,11.712,2.731,2.731,-76.225,-54.684,-13.210
0.444,11.778,2.693,2.693,-76.206,-54.648,-13.262
0.447,11.839,2.648,2.648,-76.190,-54.614,-13.311
0.451,11.897,2.601,2.601,-76.179,-54.584,-13.359
0.455,11.951,2.558,2.558,-76.175,-54.559,-13.406
0.459,12.003,2.526,2.526,-76.182,-54.540,-13.454
0.463,12.058,2.515,2.515,-76.202,-54.528,-13.504
0.467,12.122,2.533,2.533,-76.239,-54.524,-13.556
0.471,12.200,2.568,2.568,-76.293,-54.530,-13.612
0.475,12.299,2.586,2.586,-76.369,-54.547,-13.673
0.479,12.422,2.565,2.565,-76.469,-54.576,-13.739
0.482,12.572,2.512,2.512,-76.594,-54.617,-13.810
0.486,12.745,2.443,2.443,-76.741,-54.668,-13.887
0.490,12.937,2.370,2.370,-76.905,-54.728,-13.967
0.494,13.142,2.299,2.299,-77.080,-54.794,-14.049
0.498,13.354,2.238,2.238,-77.263,-54.865,-14.132
0.502,13.569,2.187,2.187,-77.449,-54.936,-14.213
0.506,13.781,2.148,2.148,-77.633,-55.007,-14.291
0.510,13.986,2.121,2.121,-77.810,-55.076,-14.366
0.514,14.176,2.108,2.108,-77.976,-55.139,-14.435
0.518,14.348,2.111,2.111,-78.127,-55.195,-14.496
0.521,14.496,2.121,2.121,-78.257,-55.242,-14.550
0.525,14.616,2.125,2.125,-78.362,-55.277,-14.593
0.529,14.709,2.112,2.112,-78.445,-55.301,-14.628
0.533,14.778,2.089,2.089,-78.507,-55.315,-14.657
0.537,14.828,2.069,2.069,-78.550,-55.319,-14.680
0.541,14.863,2.059,2.059,-78.578,-55.315,-14.701
0.545,14.890,2.064,2.064,-78.593,-55.303,-14.720
0.549,14.918,2.085,2.085,-78.598,-55.285,-14.741
0.553,14.951,2.114,2.114,-78.594,-55.260,-14.763
0.556,14.992,2.139,2.139,-78.585,-55.231,-14.790
0.560,15.041,2.150,2.150,-78.574,-55.197,-14.823
0.564,15.097,2.147,2.147,-78.562,-55.160,-14.864
0.568,15.162,2.130,2.130,-78.552,-55.121,-14.915
0.572,15.235,2.103,2.103,-78.545,-55.079,-14.974
0.576,15.315,2.074,2.074,-78.543,-55.035,-15.041
0.580,15.400,2.050,2.050,-78.547,-54.989,-15.113
0.584,15.490,2.032,2.032,-78.557,-54.941,-15.188
0.588,15.583,2.020,2.020,-78.574,-54.891,-15.264
0.591,15.678,2.016,2.016,-78.599,-54.839,-15.340
0.595,15.776,2.025,2.025,-78.633,-54.785,-15.414
0.599,15.875,2.048,2.048,-78.677,-54.729,-15.483
0.603,15.977,2.085,2.085,-78.732,-54.670,-15.546
0.607,16.083,2.128,2.128,-78.798,-54.610,-15.602
0.611,16.193,2.171,2.171,-78.877,-54.547,-15.647
0.615,16.310,2.194,2.194,-78.968,-54.483,-15.683
0.619,16.435,2.182,2.182,-79.069,-54.417,-15.715
0.623,16.566,2.141,2.141,-79.178,-54.350,-15.743
0.626,16.705,2.095,2.095,-79.294,-54.281,-15.773
0.630,16.848,2.062,2.062,-79.415,-54.211,-15.807
0.634,16.996,2.048,2.048,-79.539,-54.141,-15.849
0.638,17.150,2.053,2.053,-79.663,-54.070,-15.902
0.642,17.308,2.077,2.077,-79.788,-53.999,-15.970
0.646,17.473,2.112,2.112,-79.910,-53.927,-16.055
0.650,17.646,2.153,2.153,-80.027,-53.856,-16.160
0.654,17.832,2.193,2.193,-80.139,-53.785,-16.290
0.658,18.031,2.227,2.227,-80.244,-53.715,-16.444
0.661,18.242,2.256,2.256,-80.345,-53.647,-16.617
0.665,18.463,2.286,2.286,-80.443,-53.582,-16.804
0.669,18.689,2.328,2.328,-80.539,-53.522,-16.999
0.673,18.916,2.384,2.384,-80.636,-53.467,-17.197
0.677,19.141,2.455,2.455,-80.735,-53.419,-17.394
0.681,19.360,2.543,2.543,-80.838,-53.379,-17.583
0.685,19.569,2.650,2.650,-80.947,-53.348,-17.759
0.689,19.767,2.781,2.781,-81.062,-53.326,-17.918
0.693,19.952,2.914,2.914,-81.187,-53.316,-18.053
0.696,20.125,3.005,3.005,-81.323,-53.319,-18.160
0.700,20.291,3.017,3.017,-81.470,-53.333,-18.236
0.704,20.456,2.981,2.981,-81.626,-53.358,-18.283
0.708,20.623,2.947,2.947,-81.789,-53.389,-18.302
0.712,20.794,2.942,2.942,-81.957,-53.424,-18.297
0.716,20.969,2.954,2.954,-82.126,-53.461,-18.269
0.720,21.147,2.964,2.964,-82.294,-53.495,-18.222
0.724,21.327,2.970,2.970,-82.460,-53.524,-18.157
0.728,21.507,2.981,2.981,-82.620,-53.545,-18.078
0.732,21.685,2.997,2.997,-82.772,-53.556,-17.986
0.735,21.860,2.999,2.999,-82.914,-53.553,-17.883
0.739,22.031,2.968,2.968,-83.043,-53.534,-17.773
0.743,22.198,2.901,2.901,-83.158,-53.496,-17.658
0.747,22.363,2.818,2.818,-83.261,-53.442,-17.542
0.751,22.527,2.737,2.737,-83.358,-53.376,-17.427
0.755,22.688,2.662,2.662,-83.451,-53.300,-17.318
0.759,22.847,2.592,2.592,-83.544,-53.219,-17.219
0.763,23.001,2.530,2.530,-83.640,-53.135,-17.133
0.767,23.152,2.491,2.491,-83.745,-53.052,-17.063
0.770,23.301,2.487,2.487,-83.861,-52.973,-17.014
0.774,23.452,2.516,2.516,-83.992,-52.901,-16.988
0.778,23.614,2.566,2.566,-84.142,-52.841,-16.990
0.782,23.796,2.629,2.629,-84.315,-52.794,-17.024
0.786,24.008,2.692,2.692,-84.513,-52.764,-17.091
0.790,24.251,2.746,2.746,-84.735,-52.748,-17.188
0.794,24.520,2.796,2.796,-84.976,-52.741,-17.308
0.798,24.809,2.857,2.857,-85.231,-52.738,-17.444
0.802,25.112,2.946,2.946,-85.497,-52.735,-17.590
0.805,25.422,3.064,3.064,-85.769,-52.726,-17.738
0.809,25.733,3.207,3.207,-86.043,-52.708,-17.883
0.813,26.037,3.371,3.371,-86.315,-52.675,-18.017
0.817,26.331,3.546,3.546,-86.579,-52.622,-18.134
0.821,26.612,3.719,3.719,-86.833,-52.545,-18.227
0.825,26.881,3.854,3.854,-87.072,-52.439,-18.289
0.829,27.142,3.902,3.902,-87.292,-52.300,-18.314
0.833,27.404,3.847,3.847,-87.491,-52.130,-18.304
0.837,27.673,3.762,3.762,-87.672,-51.936,-18.263
0.840,27.949,3.728,3.728,-87.836,-51.724,-18.197
0.844,28.231,3.771,3.771,-87.984,-51.500,-18.109
0.848,28.516,3.859,3.859,-88.117,-51.271,-18.007
0.852,28.797,3.965,3.965,-88.238,-51.043,-17.894
0.856,29.070,4.086,4.086,-88.346,-50.822,-17.775
0.860,29.328,4.229,4.229,-88.443,-50.615,-17.657
0.864,29.563,4.380,4.380,-88.531,-50.428,-17.543
0.868,29.770,4.494,4.494,-88.612,-50.268,-17.439
0.872,29.942,4.531,4.531,-88.685,-50.141,-17.350
0.875,30.079,4.512,4.512,-88.753,-50.046,-17.278
0.879,30.186,4.486,4.486,-88.815,-49.981,-17.221
0.883,30.269,4.490,4.490,-88.872,-49.941,-17.176
0.887,30.333,4.517,4.517,-88.924,-49.921,-17.144
0.891,30.386,4.558,4.558,-88.972,-49.917,-17.122
0.895,30.432,4.598,4.598,-89.016,-49.923,-17.109
0.899,30.474,4.625,4.625,-89.056,-49.937,-17.103
0.903,30.514,4.627,4.627,-89.092,-49.953,-17.102
0.907,30.550,4.613,4.613,-89.125,-49.966,-17.105
0.911,30.582,4.594,4.594,-89.156,-49.973,-17.110
0.914,30.611,4.579,4.579,-89.184,-49.969,-17.116
0.918,30.643,4.569,4.569,-89.210,-49.951,-17.122
0.922,30.682,4.568,4.568,-89.235,-49.922,-17.127
0.926,30.728,4.573,4.573,-89.260,-49.883,-17.133
0.930,30.783,4.583,4.583,-89.285,-49.835,-17.140
0.934,30.844,4.596,4.596,-89.312,-49.781,-17.147
0.938,30.910,4.611,4.611,-89.341,-49.722,-17.155
0.942,30.981,4.627,4.627,-89.373,-49.659,-17.165
0.946,31.056,4.643,4.643,-89.409,-49.595,-17.177
0.949,31.132,4.656,4.656,-89.450,-49.532,-17.190
0.953,31.211,4.667,4.667,-89.497,-49.470,-17.206
0.957,31.292,4.674,4.674,-89.550,-49.412,-17.224
0.961,31.375,4.676,4.676,-89.610,-49.358,-17.245
0.965,31.461,4.674,4.674,-89.676,-49.310,-17.269
0.969,31.549,4.667,4.667,-89.748,-49.265,-17.294
0.973,31.641,4.658,4.658,-89.825,-49.224,-17.322
0.977,31.736,4.645,4.645,-89.907,-49.185,-17.351
0.981,31.833,4.631,4.631,-89.992,-49.150,-17.382
0.984,31.933,4.616,4.616,-90.081,-49.117,-17.414
0.988,32.035,4.600,4.600,-90.172,-49.086,-17.447
0.992,32.138,4.585,4.585,-90.265,-49.056,-17.481
0.996,32.243,4.570,4.570,-90.359,-49.027,-17.515
1.000,32.348,4.556,4.556,-90.454,-48.998,-17.550
