"T","Distance","Radius","FreeRadius","X","Y","Z"
0.000,0.000,0.971,0.971,-76.819,-54.392,-5.882
0.001,0.099,0.974,0.974,-76.802,-54.318,-5.946
0.003,0.197,0.978,0.978,-76.785,-54.245,-6.009
0.004,0.295,0.983,0.983,-76.768,-54.172,-6.073
0.006,0.393,0.990,0.990,-76.749,-54.100,-6.135
0.007,0.490,1.001,1.001,-76.730,-54.028,-6.197
0.009,0.586,1.016,1.016,-76.709,-53.956,-6.258
0.010,0.682,1.035,1.035,-76.686,-53.885,-6.318
0.012,0.777,1.060,1.060,-76.662,-53.814,-6.377
0.013,0.871,1.089,1.089,-76.635,-53.744,-6.434
0.014,0.964,1.121,1.121,-76.606,-53.675,-6.490
0.016,1.057,1.155,1.155,-76.574,-53.607,-6.543
0.017,1.148,1.190,1.190,-76.539,-53.540,-6.595
0.019,1.237,1.223,1.223,-76.503,-53.475,-6.643
0.020,1.323,1.254,1.254,-76.466,-53.412,-6.688
0.022,1.405,1.282,1.282,-76.429,-53.351,-6.728
0.023,1.482,1.307,1.307,-76.392,-53.293,-6.764
0.024,1.553,1.326,1.326,-76.358,-53.238,-6.793
0.026,1.618,1.341,1.341,-76.326,-53.187,-6.816
0.027,1.675,1.350,1.350,-76.297,-53.140,-6.832
0.029,1.725,1.353,1.353,-76.272,-53.097,-6.840
0.030,1.768,1.350,1.350,-76.253,-53.059,-6.839
0.032,1.805,1.340,1.340,-76.239,-53.026,-6.829
0.033,1.839,1.325,1.325,-76.228,-52.998,-6.812
0.035,1.874,1.305,1.305,-76.218,-52.973,-6.790
0.036,1.909,1.282,1.282,-76.205,-52.951,-6.766
0.037,1.946,1.257,1.257,-76.188,-52.930,-6.742
0.039,1.985,1.233,1.233,-76.162,-52.911,-6.719
0.040,2.030,1.209,1.209,-76.126,-52.892,-6.701
0.042,2.085,1.189,1.189,-76.076,-52.871,-6.690
0.043,2.155,1.171,1.171,-76.009,-52.849,-6.688
0.045,2.245,1.158,1.158,-75.923,-52.825,-6.697
0.046,2.359,1.150,1.150,-75.816,-52.797,-6.720
0.047,2.497,1.147,1.147,-75.686,-52.765,-6.757
0.049,2.655,1.152,1.152,-75.539,-52.730,-6.805
0.050,2.829,1.164,1.164,-75.379,-52.694,-6.862
0.052,3.012,1.184,1.184,-75.211,-52.657,-6.925
0.053,3.201,1.210,1.210,-75.038,-52.620,-6.990
0.055,3.389,1.241,1.241,-74.866,-52.583,-7.057
0.056,3.571,1.273,1.273,-74.699,-52.549,-7.121
0.058,3.743,1.305,1.305,-74.540,-52.517,-7.180
0.059,3.899,1.333,1.333,-74.396,-52.489,-7.231
0.060,4.034,1.357,1.357,-74.269,-52.466,-7.272
0.062,4.144,1.374,1.374,-74.165,-52.448,-7.301
0.063,4.230,1.383,1.383,-74.081,-52.435,-7.317
0.065,4.297,1.387,1.387,-74.016,-52.427,-7.324
0.066,4.346,1.387,1.387,-73.966,-52.423,-7.322
0.068,4.383,1.383,1.383,-73.931,-52.423,-7.314
0.069,4.411,1.378,1.378,-73.906,-52.426,-7.301
0.071,4.434,1.371,1.371,-73.890,-52.431,-7.284
0.072,4.456,1.365,1.365,-73.880,-52.438,-7.267
0.073,4.476,1.359,1.359,-73.873,-52.448,-7.250
0.075,4.495,1.356,1.356,-73.868,-52.458,-7.235
0.076,4.511,1.356,1.356,-73.862,-52.469,-7.224
0.078,4.527,1.359,1.359,-73.853,-52.480,-7.219
0.079,4.545,1.367,1.367,-73.839,-52.491,-7.217
0.081,4.566,1.381,1.381,-73.820,-52.502,-7.220
0.082,4.594,1.401,1.401,-73.795,-52.512,-7.227
0.083,4.629,1.424,1.424,-73.764,-52.521,-7.236
0.085,4.671,1.449,1.449,-73.724,-52.530,-7.249
0.086,4.722,1.471,1.471,-73.676,-52.538,-7.264
0.088,4.783,1.489,1.489,-73.617,-52.544,-7.280
0.089,4.855,1.498,1.498,-73.548,-52.549,-7.299
0.091,4.938,1.495,1.495,-73.468,-52.552,-7.318
0.092,5.033,1.479,1.479,-73.375,-52.552,-7.337
0.094,5.138,1.450,1.450,-73.271,-52.549,-7.356
0.095,5.251,1.412,1.412,-73.160,-52.539,-7.374
0.096,5.371,1.367,1.367,-73.042,-52.520,-7.389
0.098,5.495,1.318,1.318,-72.923,-52.490,-7.400
0.099,5.623,1.268,1.268,-72.803,-52.446,-7.406
0.101,5.755,1.220,1.220,-72.685,-52.385,-7.406
0.102,5.894,1.176,1.176,-72.572,-52.306,-7.399
0.104,6.040,1.138,1.138,-72.467,-52.205,-7.384
0.105,6.199,1.106,1.106,-72.372,-52.080,-7.360
0.106,6.374,1.080,1.080,-72.290,-51.929,-7.325
0.108,6.569,1.059,1.059,-72.223,-51.752,-7.280
0.109,6.781,1.044,1.044,-72.168,-51.554,-7.226
0.111,7.007,1.036,1.036,-72.125,-51.341,-7.166
0.112,7.242,1.033,1.033,-72.093,-51.117,-7.102
0.114,7.480,1.035,1.035,-72.070,-50.889,-7.036
0.115,7.718,1.042,1.042,-72.056,-50.662,-6.970
0.117,7.948,1.052,1.052,-72.048,-50.441,-6.906
0.118,8.165,1.064,1.064,-72.047,-50.232,-6.846
0.119,8.364,1.077,1.077,-72.050,-50.040,-6.793
0.121,8.539,1.090,1.090,-72.056,-49.871,-6.749
0.122,8.684,1.102,1.102,-72.064,-49.730,-6.715
0.124,8.801,1.112,1.112,-72.074,-49.616,-6.691
0.125,8.892,1.122,1.122,-72.085,-49.527,-6.675
0.127,8.960,1.132,1.132,-72.096,-49.461,-6.665
0.128,9.009,1.141,1.141,-72.106,-49.414,-6.658
0.129,9.040,1.150,1.150,-72.116,-49.384,-6.654
0.131,9.059,1.160,1.160,-72.124,-49.368,-6.649
0.132,9.068,1.171,1.171,-72.130,-49.364,-6.642
0.134,9.081,1.182,1.182,-72.133,-49.369,-6.631
0.135,9.101,1.193,1.193,-72.133,-49.380,-6.614
0.137,9.130,1.204,1.204,-72.129,-49.395,-6.590
0.138,9.168,1.215,1.215,-72.121,-49.411,-6.556
0.140,9.213,1.224,1.224,-72.108,-49.425,-6.515
0.141,9.263,1.232,1.232,-72.092,-49.434,-6.469
0.142,9.316,1.237,1.237,-72.071,-49.437,-6.420
0.144,9.373,1.241,1.241,-72.046,-49.429,-6.370
0.145,9.434,1.244,1.244,-72.017,-49.408,-6.321
0.147,9.502,1.245,1.245,-71.984,-49.372,-6.274
0.148,9.580,1.245,1.245,-71.947,-49.317,-6.232
0.150,9.673,1.244,1.244,-71.906,-49.242,-6.197
0.151,9.785,1.243,1.243,-71.861,-49.142,-6.170
0.153,9.920,1.242,1.242,-71.813,-49.017,-6.154
0.154,10.078,1.241,1.241,-71.762,-48.867,-6.148
0.155,10.254,1.243,1.243,-71.709,-48.700,-6.151
0.157,10.443,1.248,1.248,-71.655,-48.519,-6.163
0.158,10.640,1.259,1.259,-71.602,-48.330,-6.182
0.160,10.840,1.276,1.276,-71.550,-48.139,-6.207
0.161,11.036,1.301,1.301,-71.501,-47.951,-6.236
0.163,11.225,1.335,1.335,-71.456,-47.771,-6.270
0.164,11.400,1.377,1.377,-71.416,-47.605,-6.306
0.165,11.556,1.423,1.423,-71.382,-47.457,-6.343
0.167,11.688,1.470,1.470,-71.355,-47.333,-6.380
0.168,11.793,1.513,1.513,-71.336,-47.237,-6.417
0.170,11.873,1.551,1.551,-71.325,-47.166,-6.453
0.171,11.934,1.579,1.579,-71.320,-47.116,-6.487
0.173,11.978,1.595,1.595,-71.320,-47.085,-6.519
0.174,12.012,1.599,1.599,-71.325,-47.069,-6.548
0.176,12.039,1.594,1.594,-71.334,-47.066,-6.574
0.177,12.065,1.583,1.583,-71.346,-47.071,-6.597
0.178,12.091,1.570,1.570,-71.360,-47.083,-6.615
0.180,12.116,1.559,1.559,-71.375,-47.097,-6.628
0.181,12.138,1.552,1.552,-71.391,-47.111,-6.636
0.183,12.157,1.552,1.552,-71.406,-47.121,-6.639
0.184,12.172,1.560,1.560,-71.420,-47.127,-6.637
0.186,12.186,1.573,1.573,-71.433,-47.128,-6.631
0.187,12.200,1.588,1.588,-71.444,-47.123,-6.624
0.188,12.215,1.605,1.605,-71.453,-47.113,-6.617
0.190,12.232,1.619,1.619,-71.458,-47.098,-6.611
0.191,12.254,1.630,1.630,-71.461,-47.077,-6.609
0.193,12.281,1.634,1.634,-71.460,-47.050,-6.612
0.194,12.315,1.633,1.633,-71.454,-47.017,-6.622
0.196,12.359,1.626,1.626,-71.444,-46.978,-6.639
0.197,12.414,1.615,1.615,-71.429,-46.933,-6.667
0.199,12.482,1.601,1.601,-71.409,-46.882,-6.705
0.200,12.560,1.586,1.586,-71.383,-46.825,-6.752
0.201,12.647,1.570,1.570,-71.354,-46.763,-6.806
0.203,12.741,1.556,1.556,-71.322,-46.697,-6.865
0.204,12.840,1.542,1.542,-71.287,-46.628,-6.928
0.206,12.942,1.530,1.530,-71.251,-46.556,-6.990
0.207,13.045,1.517,1.517,-71.213,-46.483,-7.052
0.209,13.147,1.505,1.505,-71.175,-46.409,-7.111
0.210,13.245,1.493,1.493,-71.138,-46.335,-7.164
0.212,13.339,1.481,1.481,-71.102,-46.262,-7.209
0.213,13.426,1.467,1.467,-71.067,-46.190,-7.246
0.214,13.507,1.454,1.454,-71.036,-46.120,-7.272
0.216,13.583,1.440,1.440,-71.007,-46.053,-7.290
0.217,13.653,1.426,1.426,-70.981,-45.989,-7.299
0.219,13.718,1.415,1.415,-70.960,-45.927,-7.301
0.220,13.778,1.404,1.404,-70.942,-45.870,-7.297
0.222,13.834,1.397,1.397,-70.929,-45.816,-7.286
0.223,13.886,1.392,1.392,-70.922,-45.767,-7.270
0.224,13.935,1.391,1.391,-70.920,-45.723,-7.250
0.226,13.980,1.393,1.393,-70.923,-45.684,-7.227
0.227,14.024,1.399,1.399,-70.934,-45.651,-7.201
0.229,14.067,1.408,1.408,-70.950,-45.623,-7.173
0.230,14.111,1.421,1.421,-70.971,-45.600,-7.142
0.232,14.156,1.437,1.437,-70.994,-45.579,-7.108
0.233,14.204,1.457,1.457,-71.016,-45.558,-7.071
0.235,14.254,1.479,1.479,-71.034,-45.537,-7.030
0.236,14.307,1.499,1.499,-71.048,-45.513,-6.985
0.237,14.365,1.515,1.515,-71.053,-45.485,-6.934
0.239,14.431,1.524,1.524,-71.047,-45.450,-6.879
0.240,14.508,1.523,1.523,-71.029,-45.408,-6.817
0.242,14.600,1.508,1.508,-70.995,-45.356,-6.748
0.243,14.712,1.477,1.477,-70.943,-45.292,-6.673
0.245,14.843,1.430,1.430,-70.873,-45.218,-6.590
0.246,14.994,1.373,1.373,-70.789,-45.135,-6.496
0.247,15.164,1.310,1.310,-70.691,-45.045,-6.391
0.249,15.350,1.247,1.247,-70.582,-44.952,-6.272
0.250,15.552,1.189,1.189,-70.466,-44.857,-6.137
0.252,15.768,1.140,1.140,-70.344,-44.763,-5.985
0.253,15.999,1.107,1.107,-70.218,-44.672,-5.813
0.255,16.245,1.091,1.091,-70.092,-44.586,-5.621
0.256,16.506,1.098,1.098,-69.968,-44.508,-5.405
0.258,16.783,1.127,1.127,-69.848,-44.441,-5.164
0.259,17.078,1.184,1.184,-69.734,-44.385,-4.899
0.260,17.385,1.269,1.269,-69.625,-44.340,-4.614
0.262,17.700,1.386,1.386,-69.519,-44.304,-4.321
0.263,18.014,1.536,1.536,-69.414,-44.274,-4.026
0.265,18.321,1.715,1.715,-69.309,-44.248,-3.738
0.266,18.614,1.909,1.909,-69.201,-44.225,-3.467
0.268,18.886,2.103,2.103,-69.088,-44.202,-3.220
0.269,19.132,2.284,2.284,-68.970,-44.177,-3.007
0.271,19.346,2.437,2.437,-68.843,-44.149,-2.836
0.272,19.532,2.549,2.549,-68.707,-44.115,-2.715
0.273,19.698,2.605,2.605,-68.559,-44.073,-2.653
0.275,19.864,2.605,2.605,-68.399,-44.025,-2.650
0.276,20.047,2.559,2.559,-68.230,-43.975,-2.697
0.278,20.249,2.481,2.481,-68.054,-43.928,-2.785
0.279,20.469,2.382,2.382,-67.873,-43.888,-2.905
0.281,20.702,2.276,2.276,-67.690,-43.860,-3.045
0.282,20.941,2.174,2.174,-67.507,-43.850,-3.199
0.283,21.181,2.089,2.089,-67.325,-43.861,-3.355
0.285,21.416,2.026,2.026,-67.149,-43.899,-3.505
0.286,21.643,1.983,1.983,-66.978,-43.969,-3.638
0.288,21.864,1.957,1.957,-66.817,-44.074,-3.747
0.289,22.086,1.943,1.943,-66.667,-44.219,-3.822
0.291,22.317,1.941,1.941,-66.528,-44.399,-3.865
0.292,22.561,1.945,1.945,-66.399,-44.605,-3.879
0.294,22.817,1.953,1.953,-66.280,-44.832,-3.869
0.295,23.083,1.963,1.963,-66.170,-45.072,-3.838
0.296,23.353,1.973,1.973,-66.068,-45.317,-3.788
0.298,23.622,1.982,1.982,-65.974,-45.561,-3.725
0.299,23.882,1.989,1.989,-65.887,-45.795,-3.652
0.301,24.128,1.992,1.992,-65.806,-46.014,-3.572
0.302,24.353,1.990,1.990,-65.731,-46.209,-3.490
0.304,24.550,1.982,1.982,-65.661,-46.373,-3.408
0.305,24.716,1.967,1.967,-65.596,-46.504,-3.329
0.306,24.854,1.949,1.949,-65.535,-46.605,-3.256
0.308,24.968,1.929,1.929,-65.479,-46.679,-3.191
0.309,25.059,1.908,1.908,-65.427,-46.729,-3.135
0.311,25.132,1.890,1.890,-65.379,-46.759,-3.090
0.312,25.188,1.877,1.877,-65.335,-46.773,-3.057
0.314,25.232,1.869,1.869,-65.295,-46.774,-3.040
0.315,25.269,1.869,1.869,-65.259,-46.765,-3.039
0.317,25.310,1.876,1.876,-65.226,-46.749,-3.057
0.318,25.361,1.888,1.888,-65.196,-46.731,-3.095
0.319,25.429,1.905,1.905,-65.170,-46.713,-3.155
0.321,25.514,1.925,1.925,-65.146,-46.695,-3.234
0.322,25.614,1.949,1.949,-65.124,-46.678,-3.330
0.324,25.727,1.975,1.975,-65.101,-46.662,-3.440
0.325,25.851,2.001,2.001,-65.077,-46.645,-3.560
0.327,25.983,2.028,2.028,-65.051,-46.628,-3.688
0.328,26.119,2.055,2.055,-65.021,-46.610,-3.821
0.329,26.259,2.079,2.079,-64.987,-46.591,-3.954
0.331,26.398,2.101,2.101,-64.947,-46.571,-4.086
0.332,26.535,2.119,2.119,-64.900,-46.549,-4.213
0.334,26.669,2.132,2.132,-64.844,-46.526,-4.332
0.335,26.797,2.140,2.140,-64.781,-46.501,-4.442
0.337,26.922,2.145,2.145,-64.712,-46.474,-4.541
0.338,27.040,2.147,2.147,-64.639,-46.448,-4.632
0.340,27.153,2.148,2.148,-64.565,-46.421,-4.712
0.341,27.259,2.149,2.149,-64.492,-46.395,-4.784
0.342,27.355,2.152,2.152,-64.422,-46.370,-4.846
0.344,27.442,2.157,2.157,-64.358,-46.347,-4.899
0.345,27.517,2.165,2.165,-64.301,-46.327,-4.943
0.347,27.578,2.175,2.175,-64.254,-46.310,-4.979
0.348,27.624,2.186,2.186,-64.220,-46.297,-5.006
0.350,27.653,2.198,2.198,-64.199,-46.289,-5.025
0.351,27.668,2.209,2.209,-64.191,-46.284,-5.037
0.353,27.674,2.219,2.219,-64.192,-46.282,-5.043
0.354,27.681,2.226,2.226,-64.198,-46.282,-5.045
0.355,27.689,2.230,2.230,-64.206,-46.283,-5.045
0.357,27.696,2.232,2.232,-64.212,-46.285,-5.045
0.358,27.698,2.234,2.234,-64.214,-46.285,-5.045
0.360,27.705,2.236,2.236,-64.208,-46.284,-5.049
0.361,27.725,2.239,2.239,-64.190,-46.280,-5.056
0.363,27.761,2.244,2.244,-64.157,-46.272,-5.070
0.364,27.818,2.254,2.254,-64.106,-46.260,-5.091
0.365,27.897,2.267,2.267,-64.035,-46.243,-5.120
0.367,27.995,2.283,2.283,-63.946,-46.220,-5.156
0.368,28.110,2.302,2.302,-63.842,-46.193,-5.197
0.370,28.239,2.323,2.323,-63.725,-46.162,-5.241
0.371,28.379,2.345,2.345,-63.598,-46.127,-5.288
0.373,28.528,2.367,2.367,-63.462,-46.088,-5.336
0.374,28.683,2.389,2.389,-63.321,-46.045,-5.382
0.376,28.840,2.411,2.411,-63.177,-45.999,-5.426
0.377,28.999,2.433,2.433,-63.032,-45.950,-5.466
0.378,29.155,2.456,2.456,-62.889,-45.898,-5.500
0.380,29.306,2.482,2.482,-62.750,-45.844,-5.528
0.381,29.453,2.512,2.512,-62.615,-45.789,-5.548
0.383,29.595,2.546,2.546,-62.485,-45.734,-5.564
0.384,29.731,2.586,2.586,-62.360,-45.683,-5.576
0.386,29.861,2.632,2.632,-62.239,-45.635,-5.585
0.387,29.985,2.680,2.680,-62.122,-45.594,-5.593
0.388,30.103,2.729,2.729,-62.010,-45.561,-5.601
0.390,30.214,2.773,2.773,-61.902,-45.537,-5.611
0.391,30.320,2.811,2.811,-61.798,-45.526,-5.624
0.393,30.421,2.839,2.839,-61.697,-45.527,-5.641
0.394,30.522,2.854,2.854,-61.601,-45.544,-5.664
0.396,30.624,2.854,2.854,-61.508,-45.576,-5.693
0.397,30.729,2.843,2.843,-61.418,-45.621,-5.725
0.399,30.837,2.824,2.824,-61.331,-45.674,-5.758
0.400,30.944,2.799,2.799,-61.247,-45.732,-5.790
0.401,31.050,2.773,2.773,-61.165,-45.793,-5.817
0.403,31.151,2.748,2.748,-61.084,-45.851,-5.838
0.404,31.248,2.728,2.728,-61.004,-45.904,-5.849
0.406,31.338,2.715,2.715,-60.926,-45.948,-5.848
0.407,31.424,2.708,2.708,-60.847,-45.980,-5.833
0.409,31.510,2.706,2.706,-60.769,-45.996,-5.800
0.410,31.604,2.709,2.709,-60.691,-45.992,-5.749
0.412,31.713,2.714,2.714,-60.611,-45.971,-5.677
0.413,31.839,2.722,2.722,-60.529,-45.935,-5.588
0.414,31.982,2.731,2.731,-60.444,-45.890,-5.483
0.416,32.140,2.740,2.740,-60.354,-45.839,-5.363
0.417,32.312,2.750,2.750,-60.260,-45.785,-5.230
0.419,32.495,2.761,2.761,-60.160,-45.734,-5.086
0.420,32.688,2.772,2.772,-60.052,-45.688,-4.931
0.422,32.891,2.785,2.785,-59.937,-45.653,-4.769
0.423,33.102,2.799,2.799,-59.812,-45.631,-4.600
0.424,33.322,2.815,2.815,-59.678,-45.627,-4.425
0.426,33.552,2.833,2.833,-59.533,-45.643,-4.248
0.427,33.790,2.854,2.854,-59.380,-45.677,-4.069
0.429,34.034,2.877,2.877,-59.221,-45.726,-3.890
0.430,34.282,2.905,2.905,-59.057,-45.786,-3.714
0.432,34.530,2.938,2.938,-58.891,-45.854,-3.542
0.433,34.776,2.976,2.976,-58.725,-45.928,-3.377
0.435,35.016,3.021,3.021,-58.561,-46.003,-3.220
0.436,35.246,3.072,3.072,-58.400,-46.078,-3.073
0.437,35.462,3.129,3.129,-58.246,-46.149,-2.938
0.439,35.663,3.189,3.189,-58.099,-46.213,-2.818
0.440,35.843,3.251,3.251,-57.962,-46.267,-2.714
0.442,36.003,3.314,3.314,-57.837,-46.310,-2.625
0.443,36.144,3.375,3.375,-57.721,-46.343,-2.550
0.445,36.269,3.435,3.435,-57.616,-46.368,-2.487
0.446,36.379,3.491,3.491,-57.522,-46.385,-2.435
0.447,36.474,3.542,3.542,-57.437,-46.395,-2.391
0.449,36.558,3.587,3.587,-57.362,-46.400,-2.354
0.450,36.631,3.626,3.626,-57.297,-46.400,-2.322
0.452,36.694,3.659,3.659,-57.241,-46.397,-2.292
0.453,36.748,3.683,3.683,-57.195,-46.391,-2.265
0.455,36.795,3.699,3.699,-57.157,-46.384,-2.237
0.456,36.837,3.706,3.706,-57.129,-46.377,-2.207
0.458,36.876,3.706,3.706,-57.109,-46.369,-2.175
0.459,36.913,3.700,3.700,-57.096,-46.360,-2.141
0.460,36.949,3.691,3.691,-57.090,-46.351,-2.107
0.462,36.986,3.680,3.680,-57.089,-46.341,-2.071
0.463,37.025,3.669,3.669,-57.094,-46.330,-2.034
0.465,37.065,3.660,3.660,-57.102,-46.319,-1.997
0.466,37.106,3.654,3.654,-57.115,-46.307,-1.959
0.468,37.149,3.651,3.651,-57.129,-46.294,-1.921
0.469,37.192,3.651,3.651,-57.146,-46.280,-1.884
0.471,37.236,3.653,3.653,-57.164,-46.266,-1.847
0.472,37.280,3.658,3.658,-57.183,-46.250,-1.810
0.473,37.323,3.664,3.664,-57.202,-46.234,-1.774
0.475,37.366,3.671,3.671,-57.220,-46.218,-1.740
0.476,37.407,3.679,3.679,-57.239,-46.202,-1.707
0.478,37.446,3.687,3.687,-57.256,-46.186,-1.676
0.479,37.482,3.696,3.696,-57.273,-46.170,-1.647
0.481,37.516,3.703,3.703,-57.288,-46.156,-1.621
0.482,37.547,3.710,3.710,-57.301,-46.143,-1.597
0.483,37.573,3.715,3.715,-57.313,-46.131,-1.576
0.485,37.595,3.718,3.718,-57.322,-46.120,-1.559
0.486,37.613,3.718,3.718,-57.328,-46.112,-1.545
0.488,37.627,3.717,3.717,-57.332,-46.105,-1.533
0.489,37.640,3.714,3.714,-57.333,-46.098,-1.523
0.491,37.652,3.711,3.711,-57.332,-46.091,-1.512
0.492,37.667,3.709,3.709,-57.328,-46.082,-1.501
0.494,37.684,3.707,3.707,-57.322,-46.072,-1.488
0.495,37.707,3.707,3.707,-57.313,-46.059,-1.472
0.496,37.736,3.710,3.710,-57.302,-46.043,-1.451
0.498,37.772,3.714,3.714,-57.288,-46.022,-1.425
0.499,37.816,3.721,3.721,-57.272,-45.996,-1.393
0.501,37.870,3.729,3.729,-57.254,-45.965,-1.352
0.502,37.934,3.739,3.739,-57.233,-45.928,-1.305
0.504,38.008,3.750,3.750,-57.210,-45.885,-1.250
0.505,38.089,3.762,3.762,-57.183,-45.838,-1.190
0.506,38.177,3.775,3.775,-57.152,-45.786,-1.126
0.508,38.271,3.789,3.789,-57.116,-45.731,-1.058
0.509,38.371,3.804,3.804,-57.076,-45.673,-0.987
0.511,38.475,3.820,3.820,-57.031,-45.612,-0.915
0.512,38.584,3.837,3.837,-56.979,-45.549,-0.843
0.514,38.695,3.855,3.855,-56.922,-45.486,-0.772
0.515,38.810,3.875,3.875,-56.858,-45.421,-0.703
0.517,38.927,3.896,3.896,-56.786,-45.356,-0.636
0.518,39.045,3.918,3.918,-56.710,-45.292,-0.573
0.519,39.165,3.941,3.941,-56.629,-45.228,-0.512
0.521,39.284,3.966,3.966,-56.546,-45.166,-0.454
0.522,39.401,3.991,3.991,-56.463,-45.105,-0.398
0.524,39.514,4.017,4.017,-56.381,-45.046,-0.346
0.525,39.623,4.044,4.044,-56.303,-44.990,-0.295
0.527,39.726,4.071,4.071,-56.228,-44.937,-0.248
0.528,39.822,4.098,4.098,-56.161,-44.887,-0.203
0.529,39.908,4.124,4.124,-56.101,-44.841,-0.160
0.531,39.985,4.149,4.149,-56.051,-44.800,-0.119
0.532,40.051,4.171,4.171,-56.012,-44.763,-0.081
0.534,40.108,4.190,4.190,-55.981,-44.729,-0.046
0.535,40.157,4.205,4.205,-55.959,-44.700,-0.015
0.537,40.198,4.216,4.216,-55.943,-44.673,0.013
0.538,40.233,4.224,4.224,-55.934,-44.650,0.036
0.540,40.261,4.229,4.229,-55.929,-44.628,0.054
0.541,40.285,4.232,4.232,-55.927,-44.609,0.067
0.542,40.304,4.234,4.234,-55.928,-44.591,0.075
0.544,40.321,4.236,4.236,-55.931,-44.574,0.076
0.545,40.338,4.240,4.240,-55.933,-44.558,0.071
0.547,40.358,4.245,4.245,-55.935,-44.542,0.058
0.548,40.381,4.252,4.252,-55.934,-44.526,0.042
0.550,40.407,4.260,4.260,-55.930,-44.509,0.023
0.551,40.434,4.268,4.268,-55.921,-44.490,0.006
0.553,40.463,4.276,4.276,-55.907,-44.469,-0.007
0.554,40.496,4.282,4.282,-55.885,-44.445,-0.014
0.555,40.537,4.287,4.287,-55.855,-44.418,-0.010
0.557,40.590,4.290,4.290,-55.815,-44.386,0.006
0.558,40.661,4.291,4.291,-55.764,-44.349,0.038
0.560,40.752,4.291,4.291,-55.700,-44.307,0.088
0.561,40.868,4.291,4.291,-55.624,-44.259,0.160
0.563,41.007,4.291,4.291,-55.534,-44.204,0.252
0.564,41.166,4.292,4.292,-55.433,-44.145,0.360
0.565,41.339,4.295,4.295,-55.325,-44.082,0.479
0.567,41.519,4.301,4.301,-55.211,-44.017,0.602
0.568,41.702,4.308,4.308,-55.093,-43.951,0.725
0.570,41.880,4.316,4.316,-54.976,-43.886,0.843
0.571,42.049,4.325,4.325,-54.860,-43.822,0.949
0.573,42.204,4.333,4.333,-54.750,-43.761,1.039
0.574,42.340,4.340,4.340,-54.647,-43.705,1.107
0.576,42.454,4.345,4.345,-54.553,-43.654,1.148
0.577,42.547,4.347,4.347,-54.472,-43.610,1.158
0.578,42.629,4.345,4.345,-54.402,-43.573,1.138
0.580,42.710,4.339,4.339,-54.341,-43.542,1.095
0.581,42.795,4.329,4.329,-54.288,-43.517,1.032
0.583,42.887,4.313,4.313,-54.240,-43.497,0.957
0.584,42.984,4.291,4.291,-54.196,-43.481,0.872
0.586,43.082,4.264,4.264,-54.154,-43.470,0.784
0.587,43.178,4.230,4.230,-54.112,-43.463,0.698
0.588,43.269,4.191,4.191,-54.068,-43.458,0.618
0.590,43.353,4.148,4.148,-54.020,-43.457,0.550
0.591,43.427,4.105,4.105,-53.966,-43.457,0.499
0.593,43.495,4.064,4.064,-53.905,-43.460,0.468
0.594,43.563,4.025,4.025,-53.839,-43.464,0.453
0.596,43.633,3.992,3.992,-53.769,-43.469,0.455
0.597,43.709,3.966,3.966,-53.695,-43.475,0.470
0.599,43.789,3.947,3.947,-53.619,-43.483,0.495
0.600,43.874,3.934,3.934,-53.542,-43.491,0.530
