"T","Distance","Radius","FreeRadius","X","Y","Z"
0.000,0.000,0.971,0.971,-76.819,-54.392,-5.882
0.001,0.106,0.975,0.975,-76.801,-54.313,-5.951
0.003,0.212,0.980,0.980,-76.783,-54.234,-6.019
0.004,0.317,0.987,0.987,-76.764,-54.156,-6.087
0.006,0.422,0.996,0.996,-76.743,-54.078,-6.154
0.007,0.526,1.009,1.009,-76.722,-54.000,-6.220
0.009,0.630,1.027,1.027,-76.699,-53.923,-6.286
0.010,0.733,1.050,1.050,-76.673,-53.847,-6.349
0.012,0.834,1.079,1.079,-76.646,-53.772,-6.412
0.013,0.935,1.112,1.112,-76.615,-53.697,-6.472
0.014,1.035,1.148,1.148,-76.582,-53.624,-6.530
0.016,1.133,1.185,1.185,-76.545,-53.551,-6.586
0.017,1.229,1.221,1.221,-76.506,-53.481,-6.639
0.019,1.322,1.254,1.254,-76.466,-53.413,-6.687
0.020,1.410,1.282,1.282,-76.426,-53.347,-6.731
0.022,1.492,1.304,1.304,-76.387,-53.285,-6.768
0.023,1.567,1.319,1.319,-76.351,-53.227,-6.798
0.024,1.635,1.328,1.328,-76.317,-53.173,-6.821
0.026,1.694,1.333,1.333,-76.287,-53.123,-6.836
0.027,1.745,1.332,1.332,-76.263,-53.080,-6.840
0.029,1.787,1.327,1.327,-76.245,-53.041,-6.835
0.030,1.825,1.319,1.319,-76.232,-53.009,-6.820
0.032,1.862,1.307,1.307,-76.222,-52.981,-6.798
0.033,1.900,1.293,1.293,-76.209,-52.956,-6.772
0.035,1.939,1.277,1.277,-76.191,-52.934,-6.746
0.036,1.980,1.259,1.259,-76.165,-52.913,-6.721
0.037,2.028,1.242,1.242,-76.127,-52.892,-6.702
0.039,2.088,1.224,1.224,-76.073,-52.870,-6.690
0.040,2.165,1.207,1.207,-76.000,-52.846,-6.688
0.042,2.265,1.191,1.191,-75.904,-52.819,-6.701
0.043,2.394,1.178,1.178,-75.782,-52.788,-6.729
0.045,2.550,1.168,1.168,-75.637,-52.753,-6.773
0.046,2.727,1.162,1.162,-75.473,-52.715,-6.828
0.047,2.919,1.161,1.161,-75.296,-52.676,-6.893
0.049,3.120,1.166,1.166,-75.112,-52.635,-6.962
0.050,3.323,1.177,1.177,-74.926,-52.596,-7.034
0.052,3.522,1.196,1.196,-74.744,-52.558,-7.104
0.053,3.710,1.220,1.220,-74.571,-52.523,-7.169
0.055,3.881,1.248,1.248,-74.412,-52.493,-7.225
0.056,4.028,1.276,1.276,-74.275,-52.467,-7.271
0.058,4.147,1.303,1.303,-74.162,-52.448,-7.301
0.059,4.238,1.326,1.326,-74.073,-52.434,-7.318
0.060,4.307,1.343,1.343,-74.005,-52.426,-7.324
0.062,4.356,1.353,1.353,-73.956,-52.423,-7.320
0.063,4.393,1.356,1.356,-73.921,-52.423,-7.310
0.065,4.421,1.355,1.355,-73.898,-52.427,-7.294
0.066,4.445,1.353,1.353,-73.884,-52.434,-7.276
0.068,4.467,1.352,1.352,-73.876,-52.443,-7.257
0.069,4.488,1.354,1.354,-73.870,-52.454,-7.240
0.071,4.507,1.363,1.363,-73.864,-52.466,-7.227
0.072,4.523,1.380,1.380,-73.855,-52.477,-7.219
0.073,4.542,1.403,1.403,-73.841,-52.489,-7.217
0.075,4.565,1.428,1.428,-73.821,-52.501,-7.220
0.076,4.594,1.452,1.452,-73.795,-52.512,-7.227
0.078,4.632,1.472,1.472,-73.760,-52.522,-7.237
0.079,4.679,1.483,1.483,-73.717,-52.532,-7.251
0.081,4.736,1.482,1.482,-73.662,-52.539,-7.268
0.082,4.804,1.466,1.466,-73.597,-52.546,-7.286
0.083,4.886,1.438,1.438,-73.518,-52.550,-7.306
0.085,4.980,1.400,1.400,-73.426,-52.552,-7.327
0.086,5.089,1.358,1.358,-73.319,-52.551,-7.348
0.088,5.207,1.316,1.316,-73.203,-52.544,-7.367
0.089,5.334,1.276,1.276,-73.078,-52.527,-7.385
0.091,5.466,1.243,1.243,-72.950,-52.498,-7.398
0.092,5.603,1.222,1.222,-72.821,-52.454,-7.405
0.094,5.745,1.209,1.209,-72.694,-52.390,-7.406
0.095,5.893,1.204,1.204,-72.572,-52.306,-7.399
0.096,6.051,1.203,1.203,-72.460,-52.196,-7.383
0.098,6.223,1.203,1.203,-72.359,-52.059,-7.355
0.099,6.416,1.202,1.202,-72.274,-51.891,-7.315
0.101,6.631,1.197,1.197,-72.205,-51.694,-7.264
0.102,6.865,1.185,1.185,-72.150,-51.475,-7.204
0.104,7.112,1.168,1.168,-72.109,-51.240,-7.137
0.105,7.368,1.148,1.148,-72.080,-50.996,-7.067
0.106,7.624,1.126,1.126,-72.061,-50.751,-6.995
0.108,7.875,1.105,1.105,-72.050,-50.510,-6.926
0.109,8.113,1.088,1.088,-72.047,-50.281,-6.860
0.111,8.332,1.077,1.077,-72.049,-50.070,-6.802
0.112,8.524,1.073,1.073,-72.055,-49.885,-6.753
0.114,8.682,1.076,1.076,-72.064,-49.731,-6.716
0.115,8.807,1.086,1.086,-72.075,-49.610,-6.690
0.117,8.902,1.100,1.100,-72.087,-49.517,-6.673
0.118,8.971,1.116,1.116,-72.098,-49.449,-6.663
0.119,9.019,1.135,1.135,-72.109,-49.403,-6.657
0.121,9.048,1.153,1.153,-72.119,-49.376,-6.652
0.122,9.063,1.170,1.170,-72.127,-49.365,-6.646
0.124,9.073,1.186,1.186,-72.132,-49.365,-6.637
0.125,9.091,1.199,1.199,-72.134,-49.375,-6.622
0.127,9.119,1.211,1.211,-72.131,-49.390,-6.599
0.128,9.157,1.220,1.220,-72.123,-49.407,-6.565
0.129,9.204,1.227,1.227,-72.111,-49.423,-6.523
0.131,9.257,1.231,1.231,-72.094,-49.434,-6.474
0.132,9.314,1.234,1.234,-72.071,-49.437,-6.422
0.134,9.375,1.234,1.234,-72.044,-49.428,-6.368
0.135,9.441,1.233,1.233,-72.013,-49.405,-6.315
0.137,9.515,1.232,1.232,-71.977,-49.363,-6.265
0.138,9.603,1.232,1.232,-71.936,-49.299,-6.221
0.140,9.709,1.233,1.233,-71.891,-49.210,-6.186
0.141,9.839,1.236,1.236,-71.841,-49.092,-6.162
0.142,9.996,1.243,1.243,-71.788,-48.945,-6.150
0.144,10.177,1.254,1.254,-71.731,-48.773,-6.149
0.145,10.376,1.268,1.268,-71.674,-48.583,-6.158
0.147,10.585,1.286,1.286,-71.616,-48.382,-6.176
0.148,10.800,1.308,1.308,-71.560,-48.177,-6.201
0.150,11.012,1.334,1.334,-71.507,-47.974,-6.233
0.151,11.216,1.364,1.364,-71.458,-47.779,-6.268
0.153,11.404,1.398,1.398,-71.415,-47.600,-6.307
0.154,11.570,1.435,1.435,-71.379,-47.443,-6.347
0.155,11.708,1.472,1.472,-71.351,-47.314,-6.387
0.157,11.815,1.508,1.508,-71.333,-47.217,-6.427
0.158,11.895,1.541,1.541,-71.322,-47.147,-6.465
0.160,11.953,1.567,1.567,-71.319,-47.101,-6.501
0.161,11.995,1.586,1.586,-71.322,-47.076,-6.534
0.163,12.027,1.595,1.595,-71.329,-47.066,-6.564
0.164,12.055,1.595,1.595,-71.341,-47.069,-6.589
0.165,12.083,1.589,1.589,-71.355,-47.079,-6.610
0.167,12.110,1.580,1.580,-71.372,-47.094,-6.626
0.168,12.134,1.570,1.570,-71.388,-47.109,-6.636
0.170,12.155,1.562,1.562,-71.405,-47.121,-6.639
0.171,12.172,1.558,1.558,-71.421,-47.127,-6.636
0.173,12.187,1.562,1.562,-71.434,-47.127,-6.630
0.174,12.202,1.573,1.573,-71.446,-47.122,-6.622
0.176,12.218,1.588,1.588,-71.455,-47.110,-6.615
0.177,12.238,1.605,1.605,-71.460,-47.092,-6.610
0.178,12.263,1.622,1.622,-71.461,-47.067,-6.609
0.180,12.295,1.637,1.637,-71.458,-47.035,-6.615
0.181,12.337,1.646,1.646,-71.450,-46.997,-6.630
0.183,12.391,1.649,1.649,-71.435,-46.951,-6.655
0.184,12.459,1.644,1.644,-71.415,-46.898,-6.692
0.186,12.541,1.633,1.633,-71.389,-46.838,-6.741
0.187,12.633,1.617,1.617,-71.359,-46.772,-6.798
0.188,12.734,1.596,1.596,-71.324,-46.702,-6.862
0.190,12.840,1.571,1.571,-71.286,-46.628,-6.928
0.191,12.950,1.543,1.543,-71.247,-46.551,-6.996
0.193,13.061,1.514,1.514,-71.207,-46.472,-7.062
0.194,13.169,1.484,1.484,-71.166,-46.392,-7.124
0.196,13.274,1.456,1.456,-71.126,-46.313,-7.179
0.197,13.372,1.430,1.430,-71.089,-46.235,-7.224
0.199,13.463,1.408,1.408,-71.053,-46.158,-7.258
0.200,13.547,1.392,1.392,-71.021,-46.084,-7.282
0.201,13.624,1.384,1.384,-70.993,-46.014,-7.295
0.203,13.695,1.384,1.384,-70.969,-45.947,-7.299
0.204,13.762,1.393,1.393,-70.949,-45.883,-7.295
0.206,13.823,1.408,1.408,-70.934,-45.825,-7.285
0.207,13.879,1.426,1.426,-70.925,-45.772,-7.269
0.209,13.931,1.445,1.445,-70.922,-45.724,-7.248
0.210,13.980,1.462,1.462,-70.925,-45.682,-7.224
0.212,14.025,1.476,1.476,-70.935,-45.647,-7.197
0.213,14.069,1.484,1.484,-70.952,-45.618,-7.169
0.214,14.113,1.485,1.485,-70.972,-45.593,-7.138
0.216,14.160,1.480,1.480,-70.994,-45.571,-7.103
0.217,14.209,1.470,1.470,-71.014,-45.549,-7.064
0.219,14.263,1.458,1.458,-71.030,-45.525,-7.019
0.220,14.322,1.442,1.442,-71.040,-45.497,-6.968
0.222,14.390,1.426,1.426,-71.039,-45.462,-6.909
0.223,14.471,1.409,1.409,-71.026,-45.419,-6.842
0.224,14.568,1.392,1.392,-70.998,-45.366,-6.765
0.226,14.687,1.374,1.374,-70.952,-45.299,-6.679
0.227,14.828,1.354,1.354,-70.888,-45.220,-6.580
0.229,14.992,1.332,1.332,-70.806,-45.131,-6.470
0.230,15.177,1.307,1.307,-70.709,-45.035,-6.346
0.232,15.380,1.278,1.278,-70.599,-44.934,-6.207
0.233,15.602,1.246,1.246,-70.477,-44.832,-6.053
0.235,15.840,1.212,1.212,-70.345,-44.732,-5.882
0.236,16.094,1.185,1.185,-70.205,-44.636,-5.693
0.237,16.362,1.172,1.172,-70.059,-44.547,-5.486
0.239,16.646,1.180,1.180,-69.909,-44.469,-5.259
0.240,16.944,1.217,1.217,-69.756,-44.403,-5.011
0.242,17.256,1.289,1.289,-69.602,-44.350,-4.746
0.243,17.574,1.404,1.404,-69.450,-44.307,-4.469
0.245,17.895,1.559,1.559,-69.302,-44.273,-4.186
0.246,18.212,1.738,1.738,-69.161,-44.244,-3.904
0.247,18.519,1.928,1.928,-69.029,-44.219,-3.628
0.249,18.810,2.116,2.116,-68.909,-44.194,-3.364
0.250,19.079,2.286,2.286,-68.802,-44.168,-3.119
0.252,19.320,2.424,2.424,-68.711,-44.138,-2.898
0.253,19.527,2.518,2.518,-68.639,-44.102,-2.707
0.255,19.696,2.564,2.564,-68.588,-44.057,-2.552
0.256,19.832,2.572,2.572,-68.556,-44.004,-2.432
0.258,19.940,2.552,2.552,-68.544,-43.943,-2.343
0.259,20.032,2.514,2.514,-68.548,-43.875,-2.281
0.260,20.116,2.468,2.468,-68.567,-43.802,-2.244
0.262,20.203,2.424,2.424,-68.601,-43.724,-2.226
0.263,20.297,2.391,2.391,-68.646,-43.641,-2.226
0.265,20.401,2.373,2.373,-68.703,-43.556,-2.239
0.266,20.513,2.366,2.366,-68.769,-43.468,-2.261
0.268,20.632,2.366,2.366,-68.842,-43.378,-2.290
0.269,20.756,2.369,2.369,-68.921,-43.288,-2.321
0.271,20.884,2.370,2.370,-69.005,-43.198,-2.355
0.272,21.014,2.367,2.367,-69.091,-43.107,-2.392
0.273,21.145,2.354,2.354,-69.178,-43.017,-2.430
0.275,21.276,2.332,2.332,-69.264,-42.926,-2.471
0.276,21.406,2.301,2.301,-69.347,-42.837,-2.514
0.278,21.533,2.264,2.264,-69.425,-42.748,-2.559
0.279,21.656,2.223,2.223,-69.497,-42.660,-2.606
0.281,21.774,2.182,2.182,-69.561,-42.573,-2.655
0.282,21.887,2.141,2.141,-69.616,-42.488,-2.706
0.283,21.995,2.103,2.103,-69.659,-42.404,-2.758
0.285,22.101,2.069,2.069,-69.694,-42.320,-2.812
0.286,22.207,2.037,2.037,-69.723,-42.233,-2.866
0.288,22.315,2.007,2.007,-69.746,-42.143,-2.921
0.289,22.427,1.978,1.978,-69.767,-42.048,-2.975
0.291,22.544,1.947,1.947,-69.787,-41.946,-3.028
0.292,22.668,1.915,1.915,-69.809,-41.834,-3.080
0.294,22.802,1.880,1.880,-69.834,-41.713,-3.130
0.295,22.947,1.842,1.842,-69.864,-41.580,-3.178
0.296,23.105,1.802,1.802,-69.902,-41.433,-3.223
0.298,23.275,1.764,1.764,-69.947,-41.274,-3.265
0.299,23.455,1.730,1.730,-69.996,-41.106,-3.304
0.301,23.638,1.700,1.700,-70.047,-40.935,-3.342
0.302,23.820,1.678,1.678,-70.097,-40.763,-3.379
0.304,23.997,1.665,1.665,-70.143,-40.596,-3.416
0.305,24.164,1.662,1.662,-70.183,-40.438,-3.452
0.306,24.317,1.667,1.667,-70.213,-40.293,-3.490
0.308,24.451,1.677,1.677,-70.231,-40.166,-3.529
0.309,24.565,1.691,1.691,-70.234,-40.060,-3.570
0.311,24.658,1.706,1.706,-70.219,-39.980,-3.614
0.312,24.737,1.720,1.720,-70.187,-39.924,-3.661
0.314,24.815,1.732,1.732,-70.140,-39.888,-3.710
0.315,24.898,1.740,1.740,-70.078,-39.866,-3.762
0.317,24.990,1.747,1.747,-70.005,-39.855,-3.817
0.318,25.091,1.753,1.753,-69.922,-39.849,-3.873
0.319,25.200,1.760,1.760,-69.831,-39.843,-3.933
0.321,25.315,1.770,1.770,-69.734,-39.834,-3.994
0.322,25.436,1.785,1.785,-69.632,-39.815,-4.057
0.324,25.562,1.806,1.806,-69.529,-39.782,-4.123
0.325,25.696,1.834,1.834,-69.426,-39.731,-4.190
0.327,25.836,1.866,1.866,-69.323,-39.664,-4.257
0.328,25.981,1.903,1.903,-69.224,-39.582,-4.324
0.329,26.130,1.941,1.941,-69.129,-39.488,-4.390
0.331,26.280,1.981,1.981,-69.040,-39.385,-4.453
0.332,26.428,2.020,2.020,-68.958,-39.275,-4.511
0.334,26.573,2.057,2.057,-68.885,-39.162,-4.565
0.335,26.712,2.091,2.091,-68.823,-39.048,-4.611
0.337,26.841,2.121,2.121,-68.772,-38.935,-4.651
0.338,26.960,2.148,2.148,-68.735,-38.826,-4.681
0.340,27.067,2.172,2.172,-68.712,-38.723,-4.701
0.341,27.165,2.193,2.193,-68.702,-38.627,-4.712
0.342,27.254,2.209,2.209,-68.705,-38.537,-4.712
0.344,27.340,2.222,2.222,-68.718,-38.454,-4.703
0.345,27.422,2.231,2.231,-68.741,-38.376,-4.685
0.347,27.505,2.236,2.236,-68.771,-38.305,-4.657
0.348,27.590,2.236,2.236,-68.809,-38.239,-4.620
0.350,27.677,2.233,2.233,-68.851,-38.179,-4.573
0.351,27.767,2.224,2.224,-68.898,-38.124,-4.518
0.353,27.862,2.212,2.212,-68.948,-38.075,-4.453
0.354,27.962,2.194,2.194,-69.000,-38.031,-4.381
0.355,28.068,2.173,2.173,-69.056,-37.988,-4.302
0.357,28.180,2.148,2.148,-69.119,-37.945,-4.220
0.358,28.300,2.123,2.123,-69.190,-37.898,-4.135
0.360,28.429,2.098,2.098,-69.272,-37.844,-4.050
0.361,28.569,2.076,2.076,-69.366,-37.782,-3.968
0.363,28.722,2.057,2.057,-69.474,-37.708,-3.890
0.364,28.891,2.044,2.044,-69.599,-37.620,-3.819
0.365,29.080,2.038,2.038,-69.743,-37.514,-3.756
0.367,29.292,2.037,2.037,-69.906,-37.389,-3.704
0.368,29.528,2.043,2.043,-70.089,-37.245,-3.662
0.370,29.780,2.055,2.055,-70.283,-37.087,-3.632
0.371,30.041,2.072,2.072,-70.483,-36.921,-3.611
0.373,30.303,2.093,2.093,-70.683,-36.752,-3.599
0.374,30.559,2.120,2.120,-70.876,-36.584,-3.595
0.376,30.800,2.151,2.151,-71.056,-36.423,-3.598
0.377,31.019,2.184,2.184,-71.216,-36.274,-3.608
0.378,31.208,2.218,2.218,-71.351,-36.143,-3.623
0.380,31.360,2.252,2.252,-71.454,-36.033,-3.642
0.381,31.468,2.284,2.284,-71.520,-35.951,-3.666
0.383,31.537,2.314,2.314,-71.551,-35.895,-3.691
0.384,31.578,2.338,2.338,-71.555,-35.862,-3.716
0.386,31.605,2.357,2.357,-71.542,-35.850,-3.736
0.387,31.633,2.371,2.371,-71.518,-35.854,-3.750
0.388,31.665,2.380,2.380,-71.491,-35.872,-3.754
0.390,31.701,2.384,2.384,-71.470,-35.899,-3.747
0.391,31.743,2.385,2.385,-71.463,-35.934,-3.724
0.393,31.800,2.383,2.383,-71.478,-35.972,-3.684
0.394,31.885,2.379,2.379,-71.523,-36.010,-3.622
0.396,32.006,2.372,2.372,-71.603,-36.045,-3.540
0.397,32.160,2.363,2.363,-71.717,-36.077,-3.441
0.399,32.339,2.353,2.353,-71.860,-36.106,-3.337
0.400,32.536,2.342,2.342,-72.027,-36.130,-3.234
0.401,32.743,2.330,2.330,-72.211,-36.150,-3.143
0.403,32.954,2.319,2.319,-72.409,-36.165,-3.072
0.404,33.164,2.307,2.307,-72.615,-36.176,-3.030
0.406,33.372,2.297,2.297,-72.823,-36.182,-3.027
0.407,33.583,2.288,2.288,-73.029,-36.182,-3.070
0.409,33.804,2.281,2.281,-73.228,-36.177,-3.168
0.410,34.050,2.276,2.276,-73.415,-36.167,-3.327
0.412,34.324,2.275,2.275,-73.589,-36.152,-3.538
0.413,34.625,2.278,2.278,-73.751,-36.134,-3.791
0.414,34.946,2.285,2.285,-73.899,-36.113,-4.076
0.416,35.282,2.296,2.296,-74.034,-36.091,-4.382
0.417,35.623,2.311,2.311,-74.156,-36.068,-4.700
0.419,35.961,2.330,2.330,-74.263,-36.046,-5.019
0.420,36.285,2.350,2.350,-74.356,-36.025,-5.329
0.422,36.588,2.371,2.371,-74.435,-36.006,-5.621
0.423,36.858,2.393,2.393,-74.498,-35.991,-5.883
0.424,37.092,2.413,2.413,-74.547,-35.979,-6.112
0.426,37.293,2.433,2.433,-74.582,-35.970,-6.310
0.427,37.465,2.451,2.451,-74.605,-35.962,-6.480
0.429,37.612,2.470,2.470,-74.616,-35.954,-6.626
0.430,37.739,2.489,2.489,-74.618,-35.945,-6.753
0.432,37.849,2.508,2.508,-74.611,-35.934,-6.862
0.433,37.948,2.530,2.530,-74.597,-35.919,-6.958
0.435,38.039,2.553,2.553,-74.577,-35.899,-7.045
0.436,38.127,2.579,2.579,-74.552,-35.873,-7.126
0.437,38.217,2.606,2.606,-74.523,-35.841,-7.204
0.439,38.308,2.633,2.633,-74.493,-35.801,-7.281
0.440,38.399,2.658,2.658,-74.464,-35.759,-7.356
0.442,38.487,2.679,2.679,-74.441,-35.716,-7.429
0.443,38.570,2.696,2.696,-74.426,-35.675,-7.500
0.445,38.647,2.707,2.707,-74.422,-35.639,-7.567
0.446,38.717,2.711,2.711,-74.432,-35.612,-7.631
0.447,38.784,2.708,2.708,-74.460,-35.595,-7.690
0.449,38.857,2.700,2.700,-74.509,-35.591,-7.744
0.450,38.946,2.687,2.687,-74.581,-35.604,-7.794
0.452,39.059,2.670,2.670,-74.680,-35.636,-7.837
0.453,39.198,2.651,2.651,-74.805,-35.686,-7.875
0.455,39.362,2.629,2.629,-74.952,-35.748,-7.910
0.456,39.546,2.606,2.606,-75.118,-35.820,-7.942
0.458,39.747,2.584,2.584,-75.301,-35.898,-7.973
0.459,39.961,2.565,2.565,-75.496,-35.979,-8.005
0.460,40.184,2.552,2.552,-75.702,-36.058,-8.037
0.462,40.412,2.547,2.547,-75.916,-36.132,-8.073
0.463,40.642,2.552,2.552,-76.133,-36.197,-8.112
0.465,40.871,2.569,2.569,-76.351,-36.249,-8.157
0.466,41.096,2.600,2.600,-76.567,-36.286,-8.208
0.468,41.316,2.640,2.640,-76.778,-36.308,-8.265
0.469,41.528,2.688,2.688,-76.982,-36.318,-8.325
0.471,41.731,2.739,2.739,-77.175,-36.317,-8.387
0.472,41.922,2.789,2.789,-77.355,-36.307,-8.450
0.473,42.098,2.836,2.836,-77.518,-36.291,-8.513
0.475,42.257,2.874,2.874,-77.663,-36.269,-8.573
0.476,42.394,2.902,2.902,-77.786,-36.245,-8.630
0.478,42.509,2.920,2.920,-77.885,-36.219,-8.682
0.479,42.597,2.931,2.931,-77.957,-36.195,-8.727
0.481,42.659,2.936,2.936,-78.000,-36.172,-8.765
0.482,42.702,2.937,2.937,-78.022,-36.152,-8.796
0.483,42.732,2.936,2.936,-78.028,-36.134,-8.820
0.485,42.757,2.934,2.934,-78.025,-36.117,-8.838
0.486,42.777,2.934,2.934,-78.018,-36.102,-8.849
0.488,42.793,2.936,2.936,-78.015,-36.088,-8.856
0.489,42.807,2.941,2.941,-78.021,-36.075,-8.857
0.491,42.832,2.951,2.951,-78.043,-36.063,-8.854
0.492,42.879,2.965,2.965,-78.087,-36.051,-8.847
0.494,42.953,2.986,2.986,-78.159,-36.039,-8.836
0.495,43.057,3.013,3.013,-78.262,-36.027,-8.822
0.496,43.187,3.047,3.047,-78.390,-36.014,-8.809
0.498,43.337,3.088,3.088,-78.539,-35.998,-8.797
0.499,43.505,3.132,3.132,-78.705,-35.978,-8.789
0.501,43.684,3.180,3.180,-78.883,-35.954,-8.787
0.502,43.871,3.228,3.228,-79.067,-35.924,-8.794
0.504,44.062,3.276,3.276,-79.254,-35.887,-8.811
0.505,44.255,3.321,3.321,-79.439,-35.842,-8.841
0.506,44.446,3.362,3.362,-79.617,-35.789,-8.886
0.508,44.634,3.401,3.401,-79.783,-35.725,-8.948
0.509,44.820,3.438,3.438,-79.935,-35.652,-9.026
0.511,45.003,3.474,3.474,-80.073,-35.573,-9.117
0.512,45.183,3.510,3.510,-80.195,-35.489,-9.220
0.514,45.359,3.548,3.548,-80.300,-35.403,-9.331
0.515,45.529,3.588,3.588,-80.388,-35.318,-9.449
0.517,45.691,3.630,3.630,-80.459,-35.234,-9.569
0.518,45.844,3.675,3.675,-80.510,-35.156,-9.690
0.519,45.987,3.718,3.718,-80.542,-35.085,-9.810
0.521,46.118,3.759,3.759,-80.553,-35.024,-9.924
0.522,46.237,3.795,3.795,-80.543,-34.974,-10.032
0.524,46.349,3.824,3.824,-80.515,-34.933,-10.133
0.525,46.460,3.844,3.844,-80.470,-34.900,-10.228
0.527,46.570,3.854,3.854,-80.412,-34.870,-10.318
0.528,46.683,3.854,3.854,-80.344,-34.841,-10.403
0.529,46.799,3.847,3.847,-80.269,-34.809,-10.485
0.531,46.916,3.835,3.835,-80.189,-34.773,-10.563
0.532,47.037,3.820,3.820,-80.108,-34.727,-10.640
0.534,47.160,3.804,3.804,-80.028,-34.671,-10.715
0.535,47.288,3.790,3.790,-79.953,-34.600,-10.791
0.537,47.422,3.777,3.777,-79.884,-34.513,-10.866
0.538,47.561,3.768,3.768,-79.823,-34.413,-10.940
0.540,47.703,3.760,3.760,-79.768,-34.305,-11.013
0.541,47.844,3.754,3.754,-79.719,-34.193,-11.084
0.542,47.980,3.747,3.747,-79.676,-34.082,-11.150
0.544,48.109,3.740,3.740,-79.639,-33.976,-11.213
0.545,48.225,3.732,3.732,-79.608,-33.879,-11.269
0.547,48.325,3.722,3.722,-79.581,-33.796,-11.319
0.548,48.405,3.711,3.711,-79.559,-33.732,-11.361
0.550,48.461,3.699,3.699,-79.542,-33.690,-11.394
0.551,48.494,3.688,3.688,-79.529,-33.672,-11.419
0.553,48.514,3.678,3.678,-79.520,-33.672,-11.435
0.554,48.530,3.670,3.670,-79.513,-33.684,-11.446
0.555,48.548,3.666,3.666,-79.509,-33.700,-11.451
0.557,48.562,3.665,3.665,-79.506,-33.714,-11.453
0.558,48.568,3.668,3.668,-79.505,-33.719,-11.452
0.560,48.578,3.671,3.671,-79.505,-33.709,-11.451
0.561,48.610,3.674,3.674,-79.504,-33.677,-11.450
0.563,48.671,3.675,3.675,-79.503,-33.617,-11.451
0.564,48.767,3.672,3.672,-79.501,-33.521,-11.455
0.565,48.898,3.663,3.663,-79.497,-33.389,-11.463
0.567,49.059,3.649,3.649,-79.493,-33.229,-11.473
0.568,49.241,3.627,3.627,-79.489,-33.047,-11.484
0.570,49.438,3.600,3.600,-79.486,-32.850,-11.496
0.571,49.643,3.568,3.568,-79.483,-32.646,-11.506
0.573,49.849,3.531,3.531,-79.482,-32.440,-11.515
0.574,50.049,3.491,3.491,-79.484,-32.241,-11.520
0.576,50.235,3.449,3.449,-79.489,-32.054,-11.521
0.577,50.401,3.404,3.404,-79.497,-31.888,-11.517
0.578,50.541,3.360,3.360,-79.509,-31.749,-11.506
0.580,50.655,3.317,3.317,-79.524,-31.637,-11.490
0.581,50.746,3.277,3.277,-79.542,-31.551,-11.470
0.583,50.816,3.244,3.244,-79.560,-31.487,-11.448
0.584,50.868,3.217,3.217,-79.577,-31.443,-11.426
0.586,50.905,3.200,3.200,-79.593,-31.416,-11.406
0.587,50.929,3.194,3.194,-79.605,-31.404,-11.389
0.588,50.943,3.197,3.197,-79.613,-31.404,-11.377
0.590,50.953,3.206,3.206,-79.614,-31.413,-11.373
0.591,50.970,3.221,3.221,-79.608,-31.429,-11.379
0.593,50.999,3.237,3.237,-79.594,-31.449,-11.394
0.594,51.036,3.252,3.252,-79.575,-31.470,-11.417
0.596,51.076,3.264,3.264,-79.552,-31.490,-11.443
0.597,51.113,3.271,3.271,-79.532,-31.508,-11.468
