"T","Distance","Radius","FreeRadius","X","Y","Z"
0.000,0.000,0.971,0.971,-76.819,-54.392,-5.882
0.002,0.114,0.976,0.976,-76.799,-54.307,-5.956
0.003,0.228,0.981,0.981,-76.780,-54.222,-6.029
0.005,0.341,0.989,0.989,-76.759,-54.138,-6.102
0.006,0.454,1.000,1.000,-76.737,-54.054,-6.174
0.008,0.566,1.016,1.016,-76.713,-53.971,-6.245
0.009,0.677,1.037,1.037,-76.688,-53.888,-6.315
0.011,0.787,1.065,1.065,-76.659,-53.807,-6.383
0.012,0.896,1.099,1.099,-76.628,-53.726,-6.449
0.014,1.003,1.137,1.137,-76.593,-53.647,-6.512
0.015,1.109,1.176,1.176,-76.554,-53.569,-6.573
0.017,1.213,1.216,1.216,-76.513,-53.492,-6.631
0.018,1.314,1.252,1.252,-76.470,-53.419,-6.683
0.020,1.409,1.282,1.282,-76.427,-53.348,-6.730
0.021,1.497,1.305,1.305,-76.385,-53.281,-6.770
0.023,1.577,1.321,1.321,-76.346,-53.219,-6.802
0.024,1.649,1.329,1.329,-76.310,-53.162,-6.825
0.026,1.710,1.332,1.332,-76.280,-53.110,-6.838
0.027,1.761,1.329,1.329,-76.256,-53.065,-6.840
0.029,1.804,1.323,1.323,-76.239,-53.026,-6.829
0.031,1.845,1.312,1.312,-76.227,-52.994,-6.809
0.032,1.885,1.300,1.300,-76.215,-52.966,-6.783
0.034,1.926,1.285,1.285,-76.198,-52.941,-6.755
0.035,1.969,1.269,1.269,-76.173,-52.918,-6.727
0.037,2.019,1.253,1.253,-76.135,-52.896,-6.705
0.038,2.081,1.236,1.236,-76.079,-52.873,-6.690
0.040,2.163,1.220,1.220,-76.002,-52.847,-6.688
0.041,2.271,1.205,1.205,-75.898,-52.818,-6.702
0.043,2.412,1.192,1.192,-75.765,-52.784,-6.734
0.044,2.584,1.182,1.182,-75.605,-52.746,-6.783
0.046,2.780,1.176,1.176,-75.424,-52.704,-6.846
0.047,2.990,1.175,1.175,-75.231,-52.661,-6.917
0.049,3.208,1.180,1.180,-75.031,-52.618,-6.993
0.050,3.425,1.191,1.191,-74.832,-52.576,-7.070
0.052,3.634,1.210,1.210,-74.641,-52.537,-7.142
0.053,3.825,1.234,1.234,-74.464,-52.503,-7.207
0.055,3.992,1.260,1.260,-74.309,-52.473,-7.260
0.056,4.127,1.288,1.288,-74.181,-52.451,-7.297
0.058,4.229,1.313,1.313,-74.082,-52.435,-7.317
0.060,4.304,1.333,1.333,-74.008,-52.426,-7.324
0.061,4.358,1.346,1.346,-73.954,-52.423,-7.320
0.063,4.396,1.352,1.352,-73.918,-52.424,-7.308
0.064,4.425,1.352,1.352,-73.895,-52.429,-7.291
0.066,4.451,1.350,1.350,-73.882,-52.437,-7.271
0.067,4.474,1.349,1.349,-73.874,-52.447,-7.251
0.069,4.496,1.351,1.351,-73.868,-52.459,-7.234
0.070,4.515,1.360,1.360,-73.860,-52.471,-7.223
0.072,4.533,1.378,1.378,-73.848,-52.484,-7.218
0.073,4.556,1.402,1.402,-73.829,-52.497,-7.218
0.075,4.585,1.430,1.430,-73.803,-52.509,-7.225
0.076,4.623,1.456,1.456,-73.768,-52.520,-7.235
0.078,4.672,1.477,1.477,-73.723,-52.530,-7.249
0.079,4.732,1.488,1.488,-73.665,-52.539,-7.267
0.081,4.806,1.484,1.484,-73.595,-52.546,-7.287
0.082,4.895,1.464,1.464,-73.509,-52.550,-7.308
0.084,4.999,1.430,1.430,-73.407,-52.553,-7.331
0.085,5.118,1.386,1.386,-73.290,-52.550,-7.353
0.087,5.248,1.337,1.337,-73.162,-52.540,-7.373
0.089,5.387,1.286,1.286,-73.026,-52.517,-7.390
0.090,5.532,1.238,1.238,-72.887,-52.479,-7.402
0.092,5.682,1.197,1.197,-72.749,-52.421,-7.407
0.093,5.838,1.164,1.164,-72.615,-52.339,-7.403
0.095,6.004,1.138,1.138,-72.491,-52.230,-7.388
0.096,6.185,1.119,1.119,-72.379,-52.090,-7.362
0.098,6.388,1.104,1.104,-72.284,-51.916,-7.322
0.099,6.617,1.095,1.095,-72.208,-51.706,-7.268
0.101,6.868,1.088,1.088,-72.149,-51.471,-7.203
0.102,7.135,1.083,1.083,-72.106,-51.217,-7.131
0.104,7.411,1.080,1.080,-72.076,-50.955,-7.055
0.105,7.686,1.079,1.079,-72.057,-50.691,-6.978
0.107,7.953,1.080,1.080,-72.048,-50.435,-6.904
0.108,8.202,1.083,1.083,-72.047,-50.195,-6.836
0.110,8.426,1.088,1.088,-72.052,-49.979,-6.777
0.111,8.614,1.094,1.094,-72.060,-49.797,-6.731
0.113,8.763,1.103,1.103,-72.071,-49.652,-6.698
0.115,8.876,1.113,1.113,-72.083,-49.542,-6.677
0.116,8.957,1.125,1.125,-72.096,-49.462,-6.665
0.118,9.012,1.137,1.137,-72.108,-49.409,-6.657
0.119,9.046,1.150,1.150,-72.119,-49.378,-6.652
0.121,9.062,1.163,1.163,-72.127,-49.365,-6.646
0.122,9.074,1.177,1.177,-72.132,-49.366,-6.636
0.124,9.094,1.189,1.189,-72.133,-49.377,-6.619
0.125,9.126,1.201,1.201,-72.130,-49.394,-6.592
0.127,9.170,1.211,1.211,-72.120,-49.412,-6.553
0.128,9.223,1.218,1.218,-72.105,-49.428,-6.505
0.130,9.282,1.222,1.222,-72.084,-49.436,-6.451
0.131,9.345,1.223,1.223,-72.058,-49.434,-6.393
0.133,9.414,1.219,1.219,-72.026,-49.416,-6.335
0.134,9.490,1.214,1.214,-71.988,-49.378,-6.280
0.136,9.580,1.208,1.208,-71.946,-49.316,-6.231
0.137,9.689,1.205,1.205,-71.898,-49.226,-6.191
0.139,9.826,1.206,1.206,-71.845,-49.103,-6.163
0.140,9.994,1.214,1.214,-71.788,-48.946,-6.150
0.142,10.189,1.231,1.231,-71.727,-48.760,-6.149
0.144,10.405,1.257,1.257,-71.665,-48.554,-6.160
0.145,10.632,1.290,1.290,-71.603,-48.337,-6.181
0.147,10.862,1.328,1.328,-71.544,-48.116,-6.210
0.148,11.089,1.369,1.369,-71.488,-47.900,-6.245
0.150,11.302,1.409,1.409,-71.438,-47.696,-6.285
0.151,11.494,1.447,1.447,-71.395,-47.514,-6.328
0.153,11.656,1.480,1.480,-71.361,-47.361,-6.371
0.154,11.783,1.508,1.508,-71.338,-47.245,-6.414
0.156,11.876,1.532,1.532,-71.324,-47.162,-6.456
0.157,11.943,1.550,1.550,-71.319,-47.108,-6.495
0.159,11.990,1.564,1.564,-71.321,-47.077,-6.531
0.160,12.025,1.575,1.575,-71.329,-47.066,-6.563
0.162,12.056,1.581,1.581,-71.342,-47.069,-6.591
0.163,12.085,1.583,1.583,-71.357,-47.081,-6.613
0.165,12.114,1.583,1.583,-71.375,-47.097,-6.628
0.166,12.140,1.582,1.582,-71.393,-47.113,-6.637
0.168,12.160,1.580,1.580,-71.411,-47.124,-6.638
0.169,12.177,1.579,1.579,-71.427,-47.128,-6.634
0.171,12.193,1.579,1.579,-71.441,-47.125,-6.626
0.173,12.210,1.582,1.582,-71.451,-47.116,-6.618
0.174,12.230,1.587,1.587,-71.458,-47.099,-6.611
0.176,12.255,1.594,1.594,-71.461,-47.074,-6.609
0.177,12.287,1.600,1.600,-71.459,-47.042,-6.614
0.179,12.331,1.606,1.606,-71.451,-47.001,-6.628
0.180,12.388,1.610,1.610,-71.436,-46.952,-6.654
0.182,12.462,1.611,1.611,-71.414,-46.895,-6.694
0.183,12.550,1.607,1.607,-71.386,-46.830,-6.748
0.185,12.651,1.600,1.600,-71.352,-46.759,-6.810
0.186,12.761,1.588,1.588,-71.314,-46.682,-6.880
0.188,12.877,1.573,1.573,-71.273,-46.601,-6.952
0.189,12.996,1.555,1.555,-71.230,-46.518,-7.024
0.191,13.114,1.534,1.534,-71.186,-46.432,-7.094
0.192,13.229,1.511,1.511,-71.143,-46.346,-7.157
0.194,13.338,1.486,1.486,-71.101,-46.262,-7.210
0.195,13.438,1.460,1.460,-71.063,-46.179,-7.250
0.197,13.530,1.436,1.436,-71.027,-46.098,-7.278
0.198,13.614,1.414,1.414,-70.996,-46.022,-7.294
0.200,13.691,1.397,1.397,-70.970,-45.949,-7.299
0.202,13.762,1.386,1.386,-70.949,-45.881,-7.295
0.203,13.828,1.381,1.381,-70.933,-45.819,-7.283
0.205,13.888,1.384,1.384,-70.924,-45.762,-7.265
0.206,13.943,1.392,1.392,-70.922,-45.712,-7.242
0.208,13.994,1.406,1.406,-70.928,-45.669,-7.215
0.209,14.042,1.424,1.424,-70.941,-45.634,-7.186
0.211,14.089,1.445,1.445,-70.961,-45.605,-7.154
0.212,14.138,1.469,1.469,-70.985,-45.580,-7.119
0.214,14.190,1.492,1.492,-71.007,-45.557,-7.079
0.215,14.246,1.514,1.514,-71.026,-45.532,-7.032
0.217,14.308,1.530,1.530,-71.038,-45.503,-6.979
0.218,14.379,1.538,1.538,-71.040,-45.467,-6.917
0.220,14.465,1.533,1.533,-71.027,-45.422,-6.846
0.221,14.569,1.514,1.514,-70.997,-45.364,-6.764
0.223,14.698,1.476,1.476,-70.947,-45.292,-6.669
0.224,14.854,1.421,1.421,-70.875,-45.206,-6.562
0.226,15.035,1.358,1.358,-70.783,-45.108,-6.440
0.227,15.240,1.294,1.294,-70.675,-45.003,-6.302
0.229,15.466,1.236,1.236,-70.551,-44.893,-6.147
0.231,15.712,1.193,1.193,-70.415,-44.784,-5.973
0.232,15.977,1.171,1.171,-70.269,-44.678,-5.780
0.234,16.260,1.179,1.179,-70.114,-44.579,-5.565
0.235,16.560,1.215,1.215,-69.953,-44.490,-5.328
0.237,16.877,1.276,1.276,-69.789,-44.416,-5.067
0.238,17.209,1.356,1.356,-69.624,-44.357,-4.785
0.240,17.552,1.453,1.453,-69.460,-44.310,-4.488
0.241,17.897,1.562,1.562,-69.301,-44.273,-4.183
0.243,18.238,1.680,1.680,-69.150,-44.242,-3.880
0.244,18.566,1.803,1.803,-69.009,-44.215,-3.584
0.246,18.875,1.928,1.928,-68.882,-44.188,-3.304
0.247,19.157,2.050,2.050,-68.772,-44.159,-3.046
0.249,19.404,2.167,2.167,-68.681,-44.125,-2.819
0.250,19.609,2.276,2.276,-68.613,-44.082,-2.630
0.252,19.772,2.373,2.373,-68.568,-44.029,-2.483
0.253,19.900,2.454,2.454,-68.546,-43.967,-2.373
0.255,20.003,2.520,2.520,-68.545,-43.897,-2.297
0.256,20.095,2.568,2.568,-68.561,-43.819,-2.250
0.258,20.188,2.600,2.600,-68.595,-43.736,-2.228
0.260,20.288,2.616,2.616,-68.642,-43.648,-2.225
0.261,20.399,2.615,2.615,-68.703,-43.556,-2.239
0.263,20.520,2.598,2.598,-68.774,-43.461,-2.263
0.264,20.648,2.565,2.565,-68.854,-43.365,-2.294
0.266,20.783,2.519,2.519,-68.940,-43.268,-2.329
0.267,20.921,2.464,2.464,-69.031,-43.170,-2.366
0.269,21.062,2.405,2.405,-69.124,-43.073,-2.406
0.270,21.203,2.345,2.345,-69.217,-42.976,-2.449
0.272,21.343,2.289,2.289,-69.308,-42.879,-2.494
0.273,21.481,2.240,2.240,-69.395,-42.783,-2.541
0.275,21.615,2.199,2.199,-69.475,-42.688,-2.591
0.276,21.744,2.165,2.165,-69.547,-42.594,-2.643
0.278,21.867,2.136,2.136,-69.607,-42.502,-2.697
0.279,21.984,2.108,2.108,-69.656,-42.412,-2.754
0.281,22.098,2.080,2.080,-69.694,-42.321,-2.811
0.282,22.212,2.050,2.050,-69.724,-42.228,-2.870
0.284,22.329,2.014,2.014,-69.749,-42.131,-2.928
0.285,22.450,1.975,1.975,-69.771,-42.027,-2.987
0.287,22.578,1.933,1.933,-69.793,-41.914,-3.044
0.289,22.714,1.890,1.890,-69.817,-41.791,-3.099
0.290,22.863,1.848,1.848,-69.846,-41.656,-3.152
0.292,23.025,1.808,1.808,-69.883,-41.506,-3.202
0.293,23.203,1.773,1.773,-69.928,-41.340,-3.248
0.295,23.393,1.744,1.744,-69.979,-41.162,-3.292
0.296,23.589,1.720,1.720,-70.034,-40.978,-3.333
0.298,23.786,1.702,1.702,-70.088,-40.793,-3.373
0.299,23.978,1.689,1.689,-70.139,-40.613,-3.412
0.301,24.158,1.681,1.681,-70.182,-40.442,-3.451
0.302,24.322,1.679,1.679,-70.214,-40.286,-3.492
0.304,24.465,1.681,1.681,-70.232,-40.151,-3.534
0.305,24.583,1.687,1.687,-70.233,-40.042,-3.579
0.307,24.679,1.697,1.697,-70.212,-39.962,-3.627
0.308,24.762,1.709,1.709,-70.172,-39.909,-3.678
0.310,24.848,1.722,1.722,-70.115,-39.877,-3.732
0.311,24.942,1.736,1.736,-70.042,-39.860,-3.789
0.313,25.046,1.749,1.749,-69.957,-39.851,-3.850
0.315,25.160,1.761,1.761,-69.863,-39.845,-3.912
0.316,25.282,1.773,1.773,-69.760,-39.837,-3.978
0.318,25.411,1.786,1.786,-69.652,-39.819,-4.045
0.319,25.546,1.803,1.803,-69.541,-39.786,-4.115
0.321,25.688,1.824,1.824,-69.429,-39.733,-4.187
0.322,25.839,1.853,1.853,-69.319,-39.661,-4.260
0.324,25.996,1.889,1.889,-69.213,-39.571,-4.332
0.325,26.156,1.935,1.935,-69.111,-39.469,-4.402
0.327,26.317,1.986,1.986,-69.017,-39.356,-4.468
0.328,26.476,2.040,2.040,-68.932,-39.237,-4.530
0.330,26.630,2.094,2.094,-68.858,-39.114,-4.585
0.331,26.775,2.145,2.145,-68.796,-38.992,-4.632
0.333,26.909,2.191,2.191,-68.749,-38.872,-4.669
0.334,27.029,2.228,2.228,-68.719,-38.759,-4.695
0.336,27.137,2.256,2.256,-68.704,-38.653,-4.710
0.337,27.235,2.275,2.275,-68.704,-38.555,-4.714
0.339,27.327,2.284,2.284,-68.717,-38.464,-4.706
0.340,27.417,2.285,2.285,-68.740,-38.379,-4.687
0.342,27.506,2.277,2.277,-68.773,-38.302,-4.658
0.344,27.597,2.260,2.260,-68.814,-38.232,-4.617
0.345,27.691,2.235,2.235,-68.860,-38.168,-4.565
0.347,27.789,2.204,2.204,-68.911,-38.111,-4.503
0.348,27.893,2.170,2.170,-68.964,-38.060,-4.430
0.350,28.003,2.134,2.134,-69.021,-38.014,-4.348
0.351,28.121,2.100,2.100,-69.084,-37.968,-4.259
0.353,28.246,2.069,2.069,-69.155,-37.920,-4.168
0.354,28.381,2.043,2.043,-69.237,-37.866,-4.076
0.356,28.528,2.025,2.025,-69.334,-37.803,-3.986
0.357,28.688,2.015,2.015,-69.447,-37.726,-3.901
0.359,28.867,2.014,2.014,-69.579,-37.634,-3.824
0.360,29.068,2.023,2.023,-69.732,-37.521,-3.758
0.362,29.298,2.042,2.042,-69.910,-37.386,-3.705
0.363,29.555,2.072,2.072,-70.110,-37.229,-3.666
0.365,29.830,2.113,2.113,-70.323,-37.057,-3.640
0.366,30.114,2.163,2.163,-70.541,-36.876,-3.624
0.368,30.397,2.217,2.217,-70.757,-36.693,-3.617
0.369,30.669,2.271,2.271,-70.961,-36.514,-3.617
0.371,30.918,2.320,2.320,-71.146,-36.346,-3.623
0.373,31.136,2.360,2.360,-71.303,-36.196,-3.632
0.374,31.311,2.387,2.387,-71.424,-36.070,-3.642
0.376,31.434,2.399,2.399,-71.501,-35.974,-3.653
0.377,31.505,2.398,2.398,-71.533,-35.911,-3.662
0.379,31.541,2.388,2.388,-71.532,-35.877,-3.670
0.380,31.567,2.372,2.372,-71.509,-35.865,-3.674
0.382,31.601,2.354,2.354,-71.475,-35.872,-3.675
0.383,31.640,2.337,2.337,-71.443,-35.894,-3.673
0.385,31.677,2.324,2.324,-71.423,-35.924,-3.665
0.386,31.714,2.318,2.318,-71.428,-35.958,-3.652
0.388,31.770,2.318,2.318,-71.469,-35.992,-3.634
0.389,31.866,2.324,2.324,-71.558,-36.020,-3.609
0.391,32.011,2.337,2.337,-71.698,-36.041,-3.577
0.392,32.196,2.357,2.357,-71.877,-36.055,-3.538
0.394,32.408,2.383,2.383,-72.085,-36.066,-3.494
0.395,32.637,2.417,2.417,-72.308,-36.076,-3.445
0.397,32.869,2.455,2.455,-72.534,-36.087,-3.391
0.398,33.094,2.495,2.495,-72.751,-36.101,-3.333
0.400,33.299,2.535,2.535,-72.945,-36.121,-3.271
0.402,33.474,2.572,2.572,-73.106,-36.148,-3.207
0.403,33.611,2.603,2.603,-73.220,-36.186,-3.140
0.405,33.715,2.627,2.627,-73.280,-36.235,-3.071
0.406,33.807,2.642,2.642,-73.295,-36.293,-3.002
0.408,33.904,2.650,2.650,-73.273,-36.356,-2.932
0.409,34.012,2.652,2.652,-73.223,-36.423,-2.863
0.411,34.130,2.650,2.650,-73.154,-36.490,-2.796
0.412,34.250,2.645,2.645,-73.075,-36.555,-2.731
0.414,34.367,2.640,2.640,-72.997,-36.615,-2.669
0.415,34.471,2.634,2.634,-72.927,-36.667,-2.611
0.417,34.556,2.630,2.630,-72.875,-36.707,-2.558
0.418,34.618,2.627,2.627,-72.847,-36.736,-2.510
0.420,34.664,2.624,2.624,-72.842,-36.753,-2.468
0.421,34.706,2.623,2.623,-72.856,-36.760,-2.429
0.423,34.752,2.621,2.621,-72.886,-36.759,-2.394
0.424,34.806,2.621,2.621,-72.929,-36.751,-2.362
0.426,34.867,2.621,2.621,-72.981,-36.739,-2.332
0.427,34.933,2.621,2.621,-73.038,-36.724,-2.304
0.429,35.001,2.622,2.622,-73.099,-36.708,-2.277
0.431,35.068,2.623,2.623,-73.158,-36.692,-2.250
0.432,35.132,2.624,2.624,-73.214,-36.677,-2.222
0.434,35.193,2.625,2.625,-73.266,-36.665,-2.194
0.435,35.250,2.626,2.626,-73.314,-36.653,-2.166
0.437,35.304,2.627,2.627,-73.359,-36.643,-2.137
0.438,35.356,2.627,2.627,-73.401,-36.632,-2.108
0.440,35.406,2.628,2.628,-73.440,-36.622,-2.079
0.441,35.454,2.628,2.628,-73.476,-36.611,-2.050
0.443,35.500,2.628,2.628,-73.510,-36.598,-2.020
0.444,35.546,2.628,2.628,-73.542,-36.584,-1.991
0.446,35.591,2.628,2.628,-73.572,-36.569,-1.961
0.447,35.635,2.627,2.627,-73.601,-36.553,-1.931
0.449,35.681,2.626,2.626,-73.632,-36.540,-1.900
0.450,35.729,2.624,2.624,-73.666,-36.531,-1.867
0.452,35.781,2.622,2.622,-73.704,-36.530,-1.832
0.453,35.839,2.618,2.618,-73.748,-36.537,-1.794
0.455,35.909,2.614,2.614,-73.800,-36.557,-1.753
0.456,35.992,2.608,2.608,-73.861,-36.590,-1.708
0.458,36.092,2.603,2.603,-73.932,-36.640,-1.658
0.460,36.214,2.598,2.598,-74.016,-36.709,-1.602
0.461,36.355,2.595,2.595,-74.110,-36.793,-1.540
0.463,36.511,2.595,2.595,-74.209,-36.891,-1.469
0.464,36.679,2.598,2.598,-74.311,-36.998,-1.388
0.466,36.857,2.606,2.606,-74.410,-37.111,-1.294
0.467,37.040,2.616,2.616,-74.503,-37.227,-1.187
0.469,37.228,2.628,2.628,-74.586,-37.341,-1.063
0.470,37.420,2.638,2.638,-74.656,-37.451,-0.922
0.472,37.618,2.643,2.643,-74.708,-37.553,-0.761
0.473,37.823,2.642,2.642,-74.738,-37.644,-0.578
0.475,38.040,2.632,2.632,-74.752,-37.722,-0.376
0.476,38.269,2.613,2.613,-74.757,-37.789,-0.158
0.478,38.508,2.587,2.587,-74.762,-37.844,0.075
0.479,38.755,2.561,2.561,-74.775,-37.889,0.318
0.481,39.010,2.539,2.539,-74.803,-37.923,0.568
0.482,39.272,2.527,2.527,-74.857,-37.948,0.823
0.484,39.542,2.530,2.530,-74.943,-37.963,1.079
0.485,39.827,2.553,2.553,-75.070,-37.970,1.334
0.487,40.133,2.596,2.596,-75.246,-37.969,1.584
0.489,40.460,2.653,2.653,-75.466,-37.960,1.827
0.490,40.804,2.716,2.716,-75.715,-37.946,2.062
0.492,41.152,2.781,2.781,-75.980,-37.926,2.288
0.493,41.495,2.839,2.839,-76.246,-37.903,2.503
0.495,41.820,2.885,2.885,-76.498,-37.878,2.706
0.496,42.115,2.912,2.912,-76.722,-37.850,2.896
0.498,42.369,2.922,2.922,-76.904,-37.823,3.072
0.499,42.574,2.921,2.921,-77.028,-37.797,3.232
0.501,42.729,2.914,2.914,-77.082,-37.773,3.376
0.502,42.859,2.905,2.905,-77.066,-37.750,3.502
0.504,42.993,2.900,2.900,-76.995,-37.728,3.614
0.505,43.143,2.903,2.903,-76.884,-37.703,3.711
0.507,43.305,2.918,2.918,-76.749,-37.675,3.796
0.508,43.469,2.942,2.942,-76.606,-37.640,3.871
0.510,43.626,2.970,2.970,-76.470,-37.598,3.935
0.511,43.762,3.000,3.000,-76.358,-37.546,3.992
0.513,43.872,3.028,3.028,-76.284,-37.483,4.042
0.515,43.963,3.050,3.050,-76.264,-37.406,4.088
0.516,44.070,3.063,3.063,-76.302,-37.315,4.129
0.518,44.211,3.068,3.068,-76.391,-37.213,4.169
0.519,44.387,3.066,3.066,-76.520,-37.101,4.210
0.521,44.590,3.061,3.061,-76.680,-36.982,4.252
0.522,44.815,3.055,3.055,-76.860,-36.858,4.299
0.524,45.051,3.052,3.052,-77.052,-36.731,4.352
0.525,45.290,3.053,3.053,-77.245,-36.603,4.413
0.527,45.525,3.061,3.061,-77.431,-36.476,4.483
0.528,45.749,3.075,3.075,-77.598,-36.353,4.566
0.530,45.958,3.092,3.092,-77.742,-36.235,4.660
0.531,46.154,3.111,3.111,-77.862,-36.123,4.767
0.533,46.341,3.129,3.128,-77.961,-36.017,4.885
0.534,46.520,3.143,3.143,-78.039,-35.917,5.012
0.536,46.695,3.152,3.152,-78.098,-35.825,5.149
0.537,46.868,3.156,3.156,-78.139,-35.741,5.294
0.539,47.040,3.155,3.156,-78.162,-35.665,5.447
0.540,47.212,3.153,3.155,-78.170,-35.598,5.605
0.542,47.386,3.152,3.153,-78.163,-35.540,5.770
0.544,47.562,3.153,3.154,-78.143,-35.492,5.938
0.545,47.739,3.160,3.160,-78.112,-35.453,6.107
0.547,47.913,3.173,3.172,-78.074,-35.421,6.273
0.548,48.081,3.192,3.189,-78.030,-35.396,6.434
0.550,48.241,3.215,3.210,-77.984,-35.377,6.586
0.551,48.389,3.239,3.234,-77.937,-35.363,6.725
0.553,48.521,3.263,3.257,-77.893,-35.352,6.849
0.554,48.633,3.283,3.279,-77.854,-35.344,6.954
0.556,48.722,3.297,3.298,-77.822,-35.338,7.037
0.557,48.785,3.304,3.311,-77.800,-35.332,7.096
0.559,48.825,3.304,3.319,-77.786,-35.324,7.133
0.560,48.848,3.296,3.320,-77.779,-35.313,7.152
0.562,48.867,3.283,3.315,-77.777,-35.294,7.155
0.563,48.896,3.264,3.302,-77.780,-35.267,7.145
0.565,48.940,3.240,3.282,-77.785,-35.228,7.126
0.566,48.998,3.210,3.253,-77.791,-35.176,7.101
0.568,49.073,3.177,3.216,-77.796,-35.107,7.072
0.569,49.165,3.141,3.174,-77.800,-35.019,7.043
0.571,49.275,3.103,3.128,-77.801,-34.912,7.017
0.573,49.399,3.063,3.080,-77.799,-34.791,6.993
0.574,49.530,3.024,3.032,-77.796,-34.662,6.971
0.576,49.663,2.985,2.987,-77.792,-34.531,6.951
0.577,49.789,2.948,2.946,-77.787,-34.406,6.932
0.579,49.904,2.914,2.910,-77.783,-34.293,6.914
0.580,50.000,2.886,2.881,-77.781,-34.198,6.897
0.582,50.071,2.864,2.861,-77.780,-34.129,6.881
0.583,50.112,2.852,2.850,-77.782,-34.092,6.864
0.585,50.129,2.850,2.849,-77.788,-34.090,6.848
0.586,50.160,2.861,2.861,-77.795,-34.116,6.832
0.588,50.204,2.882,2.883,-77.803,-34.157,6.819
0.589,50.250,2.908,2.909,-77.809,-34.201,6.809
0.591,50.285,2.930,2.931,-77.812,-34.235,6.804
0.592,50.298,2.941,2.941,-77.810,-34.248,6.806
0.594,50.323,2.933,2.933,-77.801,-34.227,6.815
0.595,50.395,2.899,2.898,-77.783,-34.159,6.832
0.597,50.528,2.830,2.831,-77.755,-34.032,6.860
0.598,50.731,2.732,2.733,-77.715,-33.836,6.899
0.600,50.998,2.612,2.616,-77.666,-33.579,6.948
0.602,51.312,2.483,2.488,-77.610,-33.276,7.006
0.603,51.658,2.353,2.360,-77.550,-32.940,7.069
0.605,52.022,2.233,2.240,-77.490,-32.588,7.137
0.606,52.389,2.133,2.141,-77.432,-32.232,7.208
0.608,52.743,2.060,2.067,-77.381,-31.889,7.279
0.609,53.069,2.011,2.018,-77.338,-31.574,7.349
0.611,53.353,1.982,1.988,-77.308,-31.299,7.416
0.612,53.581,1.969,1.972,-77.293,-31.080,7.477
0.614,53.755,1.965,1.967,-77.292,-30.916,7.534
0.615,53.884,1.966,1.967,-77.304,-30.798,7.585
0.617,53.978,1.968,1.968,-77.326,-30.719,7.631
0.618,54.049,1.967,1.967,-77.356,-30.670,7.672
0.620,54.106,1.964,1.963,-77.392,-30.644,7.708
0.621,54.158,1.957,1.957,-77.432,-30.632,7.740
0.623,54.208,1.947,1.947,-77.473,-30.626,7.768
0.624,54.255,1.934,1.934,-77.513,-30.619,7.792
0.626,54.301,1.916,1.917,-77.550,-30.602,7.812
0.627,54.349,1.895,1.896,-77.584,-30.573,7.828
0.629,54.401,1.870,1.871,-77.617,-30.534,7.842
0.631,54.460,1.843,1.844,-77.648,-30.485,7.852
0.632,54.525,1.815,1.816,-77.681,-30.430,7.860
0.634,54.596,1.786,1.786,-77.716,-30.368,7.865
0.635,54.672,1.758,1.758,-77.754,-30.302,7.868
0.637,54.753,1.731,1.731,-77.796,-30.233,7.869
0.638,54.839,1.706,1.706,-77.845,-30.162,7.868
