"T","Distance","Radius","FreeRadius","X","Y","Z"
0.000,0.000,1.061,1.061,219.541,229.174,245.936
0.003,0.175,1.035,1.035,219.452,229.209,246.083
0.005,0.350,1.012,1.012,219.364,229.245,246.229
0.008,0.522,0.998,0.998,219.277,229.280,246.374
0.011,0.692,0.996,0.996,219.193,229.315,246.516
0.014,0.858,1.009,1.009,219.110,229.349,246.656
0.016,1.019,1.035,1.035,219.031,229.383,246.793
0.019,1.175,1.074,1.074,218.956,229.416,246.925
0.022,1.324,1.124,1.124,218.886,229.449,247.053
0.024,1.466,1.182,1.182,218.821,229.481,247.174
0.027,1.599,1.240,1.240,218.761,229.512,247.290
0.030,1.724,1.292,1.292,218.708,229.543,247.398
0.033,1.838,1.331,1.331,218.663,229.572,247.499
0.035,1.942,1.360,1.360,218.625,229.600,247.592
0.038,2.034,1.383,1.383,218.595,229.627,247.675
0.041,2.116,1.403,1.403,218.574,229.652,247.749
0.043,2.187,1.423,1.423,218.560,229.677,247.814
0.046,2.249,1.442,1.442,218.552,229.702,247.871
0.049,2.303,1.457,1.457,218.547,229.727,247.919
0.052,2.351,1.465,1.465,218.546,229.752,247.959
0.054,2.393,1.467,1.467,218.546,229.778,247.992
0.057,2.431,1.461,1.461,218.546,229.806,248.018
0.060,2.466,1.451,1.451,218.545,229.835,248.037
0.063,2.500,1.436,1.436,218.541,229.867,248.050
0.065,2.536,1.419,1.419,218.534,229.901,248.056
0.068,2.575,1.399,1.399,218.521,229.938,248.058
0.071,2.621,1.377,1.377,218.501,229.979,248.054
0.073,2.674,1.355,1.355,218.472,230.023,248.045
0.076,2.737,1.333,1.333,218.435,230.072,248.031
0.079,2.809,1.314,1.314,218.388,230.124,248.014
0.082,2.889,1.297,1.297,218.334,230.179,247.994
0.084,2.976,1.284,1.284,218.273,230.237,247.972
0.087,3.068,1.274,1.274,218.206,230.296,247.948
0.090,3.164,1.269,1.269,218.135,230.355,247.923
0.092,3.262,1.267,1.267,218.061,230.414,247.899
0.095,3.360,1.268,1.268,217.985,230.473,247.875
0.098,3.458,1.273,1.273,217.908,230.529,247.853
0.101,3.554,1.282,1.282,217.831,230.582,247.834
0.103,3.646,1.293,1.293,217.756,230.633,247.818
0.106,3.732,1.306,1.306,217.684,230.679,247.806
0.109,3.813,1.314,1.314,217.615,230.719,247.798
0.111,3.885,1.316,1.316,217.551,230.754,247.796
0.114,3.950,1.309,1.309,217.493,230.783,247.801
0.117,4.008,1.297,1.297,217.441,230.806,247.810
0.120,4.061,1.283,1.283,217.394,230.826,247.824
0.122,4.109,1.273,1.273,217.352,230.843,247.841
0.125,4.154,1.268,1.268,217.314,230.858,247.861
0.128,4.197,1.267,1.267,217.281,230.872,247.882
0.130,4.237,1.271,1.271,217.251,230.888,247.904
0.133,4.275,1.278,1.278,217.225,230.905,247.926
0.136,4.312,1.289,1.289,217.202,230.926,247.947
0.139,4.349,1.303,1.303,217.182,230.951,247.966
0.141,4.388,1.322,1.322,217.164,230.982,247.982
0.144,4.431,1.344,1.344,217.149,231.019,247.994
0.147,4.479,1.364,1.364,217.135,231.065,248.001
0.149,4.536,1.375,1.375,217.122,231.120,248.003
0.152,4.601,1.370,1.370,217.110,231.184,247.999
0.155,4.674,1.347,1.347,217.097,231.255,247.991
0.158,4.752,1.313,1.313,217.081,231.331,247.978
0.160,4.835,1.276,1.276,217.063,231.410,247.962
0.163,4.921,1.242,1.242,217.039,231.491,247.944
0.166,5.008,1.220,1.220,217.009,231.570,247.924
0.168,5.097,1.214,1.214,216.972,231.647,247.903
0.171,5.185,1.229,1.229,216.926,231.720,247.882
0.174,5.274,1.270,1.270,216.870,231.786,247.862
0.177,5.364,1.326,1.326,216.802,231.843,247.844
0.179,5.459,1.381,1.381,216.722,231.890,247.827
0.182,5.560,1.421,1.421,216.627,231.925,247.814
0.185,5.673,1.434,1.434,216.517,231.945,247.805
0.188,5.799,1.426,1.426,216.391,231.949,247.801
0.190,5.940,1.405,1.405,216.250,231.938,247.801
0.193,6.095,1.379,1.379,216.097,231.915,247.805
0.196,6.260,1.354,1.354,215.936,231.880,247.813
0.198,6.434,1.337,1.337,215.768,231.836,247.823
0.201,6.613,1.332,1.332,215.597,231.784,247.836
0.204,6.794,1.344,1.344,215.426,231.727,247.851
0.207,6.974,1.374,1.374,215.258,231.667,247.867
0.209,7.149,1.423,1.423,215.095,231.605,247.884
0.212,7.317,1.489,1.489,214.940,231.543,247.902
0.215,7.474,1.569,1.569,214.796,231.483,247.919
0.217,7.616,1.647,1.647,214.666,231.427,247.936
0.220,7.741,1.703,1.703,214.552,231.378,247.952
0.223,7.844,1.715,1.715,214.459,231.336,247.966
0.226,7.925,1.678,1.678,214.386,231.303,247.978
0.228,7.985,1.613,1.613,214.332,231.278,247.988
0.231,8.027,1.544,1.544,214.295,231.260,247.995
0.234,8.052,1.498,1.498,214.273,231.250,248.001
0.236,8.065,1.481,1.481,214.262,231.245,248.004
0.239,8.066,1.484,1.484,214.261,231.245,248.004
0.242,8.073,1.500,1.500,214.267,231.249,248.003
0.245,8.088,1.518,1.518,214.279,231.256,247.999
0.247,8.106,1.536,1.536,214.293,231.266,247.992
0.250,8.127,1.554,1.554,214.307,231.277,247.983
0.253,8.148,1.572,1.572,214.320,231.289,247.971
0.255,8.168,1.588,1.588,214.328,231.301,247.956
0.258,8.189,1.602,1.602,214.330,231.312,247.939
0.261,8.212,1.611,1.611,214.323,231.322,247.918
0.264,8.242,1.615,1.615,214.306,231.329,247.895
0.266,8.279,1.614,1.614,214.281,231.335,247.869
0.269,8.323,1.608,1.608,214.249,231.340,247.839
0.272,8.374,1.599,1.599,214.211,231.343,247.806
0.274,8.431,1.589,1.589,214.167,231.347,247.769
0.277,8.495,1.580,1.580,214.118,231.350,247.728
0.280,8.563,1.572,1.572,214.067,231.353,247.683
0.283,8.637,1.568,1.568,214.012,231.357,247.633
0.285,8.715,1.570,1.570,213.956,231.361,247.579
0.288,8.796,1.575,1.575,213.900,231.367,247.521
0.291,8.881,1.586,1.586,213.844,231.375,247.457
0.293,8.970,1.599,1.599,213.789,231.384,247.389
0.296,9.061,1.615,1.615,213.737,231.395,247.315
0.299,9.155,1.631,1.631,213.687,231.409,247.235
0.302,9.252,1.644,1.644,213.641,231.425,247.152
0.304,9.351,1.652,1.652,213.598,231.444,247.065
0.307,9.452,1.654,1.654,213.557,231.464,246.975
0.310,9.553,1.656,1.656,213.518,231.485,246.885
0.313,9.653,1.662,1.662,213.482,231.508,246.794
0.315,9.753,1.674,1.674,213.447,231.531,246.703
0.318,9.850,1.692,1.692,213.413,231.556,246.615
0.321,9.945,1.715,1.715,213.381,231.580,246.530
0.323,10.035,1.740,1.740,213.349,231.604,246.448
0.326,10.121,1.765,1.765,213.318,231.629,246.372
0.329,10.201,1.788,1.788,213.288,231.652,246.302
0.332,10.275,1.810,1.810,213.257,231.675,246.239
0.334,10.341,1.829,1.829,213.226,231.697,246.184
0.337,10.401,1.844,1.844,213.195,231.717,246.138
0.340,10.453,1.856,1.856,213.165,231.736,246.100
0.342,10.500,1.865,1.865,213.135,231.754,246.069
0.345,10.540,1.872,1.872,213.106,231.771,246.046
0.348,10.576,1.876,1.876,213.078,231.786,246.029
0.351,10.607,1.877,1.877,213.053,231.800,246.018
0.353,10.634,1.878,1.878,213.030,231.813,246.012
0.356,10.657,1.876,1.876,213.011,231.825,246.011
0.359,10.677,1.874,1.874,212.995,231.836,246.014
0.361,10.694,1.872,1.872,212.982,231.846,246.020
0.364,10.709,1.870,1.870,212.974,231.854,246.029
0.367,10.723,1.870,1.870,212.971,231.862,246.041
0.370,10.738,1.870,1.870,212.974,231.869,246.055
0.372,10.756,1.871,1.871,212.981,231.874,246.070
0.375,10.776,1.872,1.872,212.994,231.879,246.085
0.378,10.798,1.874,1.874,213.009,231.883,246.099
0.380,10.819,1.875,1.875,213.025,231.886,246.113
0.383,10.837,1.876,1.876,213.041,231.888,246.123
0.386,10.852,1.877,1.877,213.053,231.891,246.131
0.389,10.860,1.877,1.877,213.060,231.892,246.134
0.391,10.863,1.875,1.875,213.061,231.894,246.131
0.394,10.874,1.871,1.871,213.053,231.895,246.123
0.397,10.898,1.865,1.865,213.035,231.897,246.107
0.399,10.937,1.855,1.855,213.005,231.899,246.084
0.402,10.992,1.842,1.842,212.961,231.900,246.051
0.405,11.066,1.826,1.826,212.900,231.903,246.008
0.408,11.161,1.807,1.807,212.822,231.905,245.955
0.410,11.278,1.789,1.789,212.725,231.908,245.889
0.413,11.415,1.774,1.774,212.611,231.911,245.814
0.416,11.569,1.764,1.764,212.483,231.914,245.728
0.418,11.739,1.762,1.762,212.342,231.916,245.633
0.421,11.921,1.771,1.771,212.192,231.917,245.530
0.424,12.113,1.791,1.791,212.034,231.916,245.420
0.427,12.313,1.824,1.824,211.872,231.912,245.303
0.429,12.518,1.873,1.873,211.708,231.906,245.181
0.432,12.725,1.938,1.938,211.544,231.897,245.055
0.435,12.933,2.021,2.021,211.383,231.884,244.925
0.438,13.138,2.120,2.120,211.226,231.867,244.792
0.440,13.340,2.227,2.227,211.078,231.845,244.657
0.443,13.536,2.334,2.334,210.939,231.818,244.522
0.446,13.724,2.429,2.429,210.813,231.786,244.386
0.448,13.904,2.512,2.512,210.699,231.749,244.252
0.451,14.076,2.587,2.587,210.596,231.708,244.121
0.454,14.241,2.660,2.660,210.501,231.663,243.993
0.457,14.398,2.735,2.735,210.413,231.617,243.871
0.459,14.548,2.814,2.814,210.328,231.571,243.756
0.462,14.691,2.897,2.897,210.246,231.525,243.649
0.465,14.826,2.984,2.984,210.162,231.480,243.553
0.467,14.954,3.074,3.074,210.076,231.439,243.468
0.470,15.076,3.162,3.162,209.985,231.401,243.396
0.473,15.194,3.245,3.245,209.887,231.368,243.338
0.476,15.313,3.318,3.318,209.779,231.342,243.296
0.478,15.436,3.378,3.378,209.660,231.324,243.271
0.481,15.570,3.422,3.422,209.527,231.313,243.265
0.484,15.719,3.452,3.452,209.378,231.313,243.279
0.486,15.886,3.465,3.465,209.215,231.321,243.312
0.489,16.067,3.468,3.468,209.041,231.337,243.360
0.492,16.260,3.474,3.474,208.859,231.359,243.422
0.495,16.463,3.493,3.493,208.672,231.386,243.494
0.497,16.670,3.536,3.536,208.483,231.417,243.575
0.500,16.880,3.599,3.599,208.295,231.450,243.661
0.503,17.088,3.675,3.675,208.111,231.484,243.751
0.505,17.289,3.756,3.756,207.934,231.518,243.841
0.508,17.481,3.836,3.836,207.767,231.550,243.930
0.511,17.659,3.912,3.912,207.613,231.579,244.013
0.514,17.819,3.980,3.980,207.475,231.604,244.090
0.516,17.957,4.040,4.040,207.355,231.623,244.158
0.519,18.070,4.090,4.090,207.258,231.635,244.213
0.522,18.154,4.129,4.129,207.185,231.640,244.254
0.524,18.214,4.159,4.159,207.132,231.639,244.284
0.527,18.253,4.180,4.180,207.099,231.632,244.302
0.530,18.275,4.193,4.193,207.081,231.622,244.311
0.533,18.288,4.198,4.198,207.077,231.610,244.312
0.535,18.303,4.196,4.196,207.084,231.598,244.307
0.538,18.325,4.189,4.189,207.099,231.585,244.297
0.541,18.352,4.178,4.178,207.120,231.575,244.284
0.543,18.380,4.166,4.166,207.144,231.569,244.270
0.546,18.409,4.155,4.155,207.168,231.567,244.255
0.549,18.435,4.147,4.147,207.190,231.572,244.241
0.552,18.459,4.139,4.139,207.207,231.584,244.230
0.554,18.483,4.129,4.129,207.217,231.605,244.224
0.557,18.515,4.115,4.115,207.217,231.637,244.224
0.560,18.557,4.097,4.097,207.206,231.678,244.229
0.563,18.609,4.076,4.076,207.185,231.723,244.241
0.565,18.668,4.054,4.054,207.155,231.771,244.258
0.568,18.731,4.034,4.034,207.118,231.816,244.281
0.571,18.796,4.018,4.018,207.072,231.855,244.308
0.573,18.863,4.011,4.011,207.021,231.884,244.339
0.576,18.932,4.017,4.017,206.964,231.899,244.374
0.579,19.004,4.040,4.040,206.902,231.897,244.412
0.582,19.085,4.077,4.077,206.837,231.874,244.454
0.584,19.180,4.126,4.126,206.768,231.826,244.498
0.587,19.293,4.186,4.186,206.698,231.749,244.544
0.590,19.432,4.249,4.249,206.626,231.640,244.591
0.592,19.602,4.303,4.303,206.555,231.494,244.641
0.595,19.806,4.335,4.335,206.483,231.310,244.690
0.598,20.042,4.335,4.335,206.412,231.091,244.741
0.601,20.305,4.307,4.307,206.342,230.843,244.791
0.603,20.590,4.270,4.270,206.271,230.571,244.841
0.606,20.892,4.238,4.238,206.200,230.282,244.890
0.609,21.205,4.228,4.228,206.127,229.980,244.938
0.611,21.524,4.243,4.243,206.054,229.673,244.985
0.614,21.843,4.286,4.286,205.980,229.366,245.029
0.617,22.157,4.359,4.359,205.904,229.065,245.070
0.620,22.460,4.456,4.456,205.826,228.774,245.109
0.622,22.747,4.558,4.558,205.746,228.501,245.144
0.625,23.012,4.644,4.644,205.664,228.251,245.175
0.628,23.251,4.692,4.692,205.579,228.030,245.202
0.630,23.458,4.699,4.699,205.491,227.843,245.225
0.633,23.634,4.678,4.678,205.399,227.694,245.242
0.636,23.784,4.643,4.643,205.306,227.578,245.255
0.639,23.912,4.606,4.606,205.210,227.494,245.262
0.641,24.025,4.576,4.576,205.112,227.436,245.265
0.644,24.130,4.560,4.560,205.013,227.402,245.262
0.647,24.232,4.567,4.567,204.913,227.389,245.255
0.649,24.333,4.601,4.601,204.812,227.392,245.242
0.652,24.436,4.653,4.653,204.711,227.408,245.224
0.655,24.543,4.715,4.715,204.611,227.435,245.201
0.658,24.651,4.776,4.776,204.512,227.468,245.172
0.660,24.761,4.829,4.829,204.414,227.504,245.139
0.663,24.870,4.865,4.865,204.317,227.539,245.100
0.666,24.979,4.878,4.878,204.223,227.570,245.056
0.668,25.086,4.860,4.860,204.132,227.594,245.007
0.671,25.191,4.818,4.818,204.042,227.610,244.954
0.674,25.294,4.765,4.765,203.954,227.617,244.901
0.677,25.396,4.714,4.714,203.865,227.616,244.849
0.679,25.497,4.677,4.677,203.776,227.607,244.802
0.682,25.598,4.656,4.656,203.686,227.591,244.763
0.685,25.698,4.651,4.651,203.592,227.567,244.733
0.688,25.801,4.662,4.662,203.496,227.536,244.717
0.690,25.910,4.691,4.691,203.394,227.498,244.715
0.693,26.027,4.741,4.741,203.287,227.453,244.732
0.696,26.157,4.813,4.813,203.174,227.401,244.770
0.698,26.304,4.912,4.912,203.054,227.343,244.831
0.701,26.472,5.024,5.024,202.925,227.279,244.919
0.704,26.666,5.125,5.125,202.787,227.209,245.035
0.707,26.887,5.188,5.188,202.639,227.134,245.182
0.709,27.134,5.192,5.192,202.484,227.054,245.356
0.712,27.401,5.148,5.148,202.323,226.970,245.553
0.715,27.685,5.084,5.084,202.158,226.884,245.767
0.717,27.980,5.025,5.025,201.993,226.797,245.996
0.720,28.282,4.992,4.992,201.828,226.710,246.233
0.723,28.586,4.984,4.984,201.666,226.624,246.476
0.726,28.887,4.997,4.997,201.510,226.540,246.719
0.728,29.180,5.024,5.024,201.361,226.460,246.958
0.731,29.460,5.061,5.061,201.222,226.385,247.189
0.734,29.722,5.099,5.099,201.095,226.315,247.408
0.736,29.962,5.129,5.129,200.982,226.251,247.609
0.739,30.173,5.145,5.145,200.885,226.196,247.788
0.742,30.351,5.146,5.146,200.807,226.150,247.942
0.745,30.496,5.139,5.139,200.747,226.113,248.068
0.747,30.609,5.131,5.131,200.704,226.085,248.168
0.750,30.693,5.128,5.128,200.676,226.063,248.245
0.753,30.753,5.129,5.129,200.659,226.049,248.301
0.755,30.792,5.132,5.132,200.652,226.039,248.338
0.758,30.812,5.135,5.135,200.652,226.033,248.357
0.761,30.819,5.137,5.137,200.658,226.031,248.361
0.764,30.831,5.138,5.138,200.666,226.031,248.353
0.766,30.852,5.141,5.141,200.675,226.031,248.333
0.769,30.881,5.146,5.146,200.682,226.032,248.306
0.772,30.915,5.155,5.155,200.684,226.032,248.271
0.774,30.954,5.167,5.167,200.681,226.030,248.233
0.777,30.997,5.183,5.183,200.668,226.025,248.192
0.780,31.045,5.203,5.203,200.645,226.016,248.151
0.783,31.097,5.225,5.225,200.613,226.003,248.112
0.785,31.151,5.247,5.247,200.574,225.985,248.078
0.788,31.206,5.265,5.265,200.532,225.964,248.052
0.791,31.258,5.278,5.278,200.489,225.940,248.035
0.793,31.308,5.285,5.285,200.447,225.912,248.032
0.796,31.357,5.287,5.287,200.411,225.881,248.043
0.799,31.410,5.283,5.283,200.382,225.846,248.071
0.802,31.474,5.274,5.274,200.364,225.810,248.120
0.804,31.556,5.263,5.263,200.359,225.770,248.191
0.807,31.662,5.251,5.251,200.370,225.728,248.288
0.810,31.797,5.241,5.241,200.401,225.684,248.412
0.813,31.966,5.226,5.226,200.453,225.638,248.566
0.815,32.174,5.195,5.195,200.529,225.590,248.754
0.818,32.423,5.136,5.136,200.632,225.540,248.974
0.821,32.706,5.042,5.042,200.758,225.490,249.224
0.823,33.020,4.924,4.924,200.904,225.439,249.497
0.826,33.357,4.801,4.801,201.066,225.388,249.787
0.829,33.711,4.692,4.692,201.242,225.338,250.091
0.832,34.077,4.609,4.609,201.427,225.288,250.402
0.834,34.448,4.557,4.557,201.619,225.241,250.716
0.837,34.817,4.538,4.538,201.815,225.196,251.026
0.840,35.178,4.553,4.553,202.010,225.153,251.327
0.842,35.526,4.593,4.593,202.202,225.114,251.615
0.845,35.854,4.637,4.637,202.387,225.078,251.883
0.848,36.155,4.664,4.664,202.562,225.047,252.126
0.851,36.425,4.654,4.654,202.724,225.021,252.340
0.853,36.655,4.613,4.613,202.868,225.001,252.518
0.856,36.846,4.560,4.560,202.994,224.985,252.661
0.859,37.000,4.515,4.515,203.099,224.974,252.773
0.861,37.119,4.490,4.490,203.181,224.965,252.858
0.864,37.205,4.483,4.483,203.240,224.959,252.921
0.867,37.260,4.483,4.483,203.272,224.953,252.966
0.870,37.293,4.485,4.485,203.278,224.948,252.997
0.872,37.325,4.484,4.484,203.254,224.941,253.019
0.875,37.383,4.484,4.484,203.200,224.933,253.036
0.878,37.472,4.491,4.491,203.114,224.921,253.053
0.880,37.595,4.508,4.508,202.993,224.904,253.074
0.883,37.755,4.535,4.535,202.838,224.883,253.103
0.886,37.954,4.564,4.564,202.645,224.855,253.146
0.889,38.196,4.591,4.591,202.413,224.820,253.205
0.891,38.482,4.610,4.610,202.143,224.776,253.286
0.894,38.807,4.625,4.625,201.837,224.726,253.386
0.897,39.165,4.641,4.641,201.503,224.669,253.501
0.899,39.547,4.664,4.664,201.148,224.609,253.629
0.902,39.947,4.700,4.700,200.778,224.546,253.766
0.905,40.357,4.757,4.757,200.399,224.482,253.909
0.908,40.769,4.844,4.844,200.019,224.418,254.054
0.910,41.176,4.968,4.968,199.643,224.357,254.198
0.913,41.571,5.121,5.121,199.278,224.299,254.338
0.916,41.946,5.279,5.279,198.931,224.246,254.470
0.918,42.293,5.414,5.414,198.608,224.199,254.590
0.921,42.606,5.502,5.502,198.317,224.161,254.696
0.924,42.877,5.544,5.544,198.063,224.133,254.785
0.927,43.098,5.551,5.551,197.852,224.116,254.852
0.929,43.267,5.534,5.534,197.689,224.110,254.896
0.932,43.390,5.505,5.505,197.568,224.114,254.920
0.935,43.474,5.473,5.473,197.486,224.126,254.927
0.938,43.527,5.447,5.447,197.436,224.142,254.920
0.940,43.562,5.436,5.436,197.414,224.161,254.901
0.943,43.595,5.444,5.444,197.415,224.181,254.874
0.946,43.637,5.467,5.467,197.434,224.199,254.842
0.948,43.687,5.498,5.498,197.467,224.214,254.807
0.951,43.742,5.534,5.534,197.508,224.222,254.772
0.954,43.796,5.571,5.571,197.552,224.221,254.741
0.957,43.847,5.607,5.607,197.596,224.210,254.716
0.959,43.894,5.639,5.639,197.632,224.186,254.700
0.962,43.941,5.667,5.667,197.658,224.147,254.697
0.965,43.999,5.689,5.689,197.668,224.091,254.708
0.967,44.078,5.706,5.706,197.661,224.017,254.734
0.970,44.179,5.717,5.717,197.637,223.927,254.775
0.973,44.302,5.724,5.724,197.600,223.823,254.829
0.976,44.446,5.728,5.728,197.549,223.705,254.894
0.978,44.610,5.731,5.731,197.487,223.575,254.970
0.981,44.790,5.734,5.734,197.414,223.434,255.056
0.984,44.985,5.739,5.739,197.331,223.284,255.150
0.986,45.193,5.749,5.749,197.241,223.126,255.251
0.989,45.412,5.764,5.764,197.144,222.962,255.358
0.992,45.640,5.788,5.788,197.042,222.791,255.470
0.995,45.874,5.819,5.819,196.936,222.617,255.585
0.997,46.112,5.854,5.854,196.828,222.440,255.703
1.000,46.353,5.892,5.892,196.718,222.262,255.822
