"T","Distance","Radius","FreeRadius","X","Y","Z"
0.000,0.000,1.061,1.061,219.541,229.174,245.936
0.001,0.210,1.067,1.067,219.430,229.237,246.103
0.002,0.419,1.073,1.073,219.320,229.300,246.269
0.004,0.624,1.081,1.081,219.213,229.360,246.433
0.005,0.824,1.092,1.092,219.110,229.417,246.595
0.006,1.017,1.105,1.105,219.013,229.469,246.753
0.007,1.202,1.122,1.122,218.922,229.515,246.908
0.008,1.377,1.143,1.143,218.840,229.555,247.057
0.010,1.540,1.169,1.169,218.767,229.586,247.200
0.011,1.692,1.202,1.202,218.705,229.609,247.336
0.012,1.830,1.239,1.239,218.655,229.621,247.464
0.013,1.955,1.279,1.279,218.619,229.622,247.584
0.014,2.069,1.321,1.321,218.597,229.610,247.695
0.016,2.173,1.363,1.363,218.591,229.585,247.796
0.017,2.271,1.402,1.402,218.599,229.549,247.887
0.018,2.369,1.438,1.438,218.620,229.501,247.969
0.019,2.468,1.468,1.468,218.653,229.443,248.042
0.020,2.571,1.491,1.491,218.696,229.375,248.107
0.022,2.679,1.505,1.505,218.749,229.298,248.162
0.023,2.794,1.514,1.514,218.811,229.214,248.210
0.024,2.916,1.518,1.518,218.880,229.123,248.250
0.025,3.043,1.520,1.520,218.956,229.025,248.282
0.026,3.176,1.521,1.521,219.037,228.922,248.306
0.028,3.315,1.525,1.525,219.122,228.814,248.323
0.029,3.457,1.533,1.533,219.210,228.703,248.334
0.030,3.602,1.546,1.546,219.300,228.589,248.338
0.031,3.747,1.568,1.568,219.391,228.476,248.336
0.032,3.890,1.596,1.596,219.482,228.366,248.329
0.034,4.030,1.631,1.631,219.572,228.260,248.318
0.035,4.163,1.669,1.669,219.659,228.161,248.304
0.036,4.287,1.711,1.711,219.743,228.071,248.286
0.037,4.401,1.754,1.754,219.823,227.991,248.266
0.039,4.503,1.796,1.796,219.897,227.925,248.244
0.040,4.591,1.837,1.837,219.964,227.874,248.221
0.041,4.663,1.875,1.875,220.024,227.841,248.198
0.042,4.721,1.909,1.909,220.075,227.826,248.175
0.043,4.768,1.938,1.938,220.117,227.831,248.154
0.045,4.812,1.960,1.960,220.152,227.850,248.135
0.046,4.853,1.976,1.976,220.180,227.878,248.122
0.047,4.893,1.985,1.985,220.202,227.910,248.115
0.048,4.930,1.985,1.985,220.220,227.942,248.116
0.049,4.962,1.977,1.977,220.236,227.968,248.128
0.051,4.994,1.958,1.958,220.249,227.985,248.150
0.052,5.032,1.930,1.930,220.262,227.986,248.187
0.053,5.089,1.894,1.894,220.275,227.967,248.238
0.054,5.171,1.853,1.853,220.290,227.923,248.306
0.055,5.286,1.809,1.809,220.308,227.850,248.393
0.057,5.439,1.767,1.767,220.330,227.743,248.500
0.058,5.626,1.727,1.727,220.356,227.605,248.624
0.059,5.842,1.694,1.694,220.384,227.441,248.762
0.060,6.080,1.669,1.669,220.413,227.257,248.910
0.061,6.334,1.656,1.656,220.443,227.058,249.065
0.063,6.598,1.654,1.654,220.473,226.849,249.223
0.064,6.864,1.662,1.662,220.501,226.635,249.380
0.065,7.127,1.677,1.677,220.527,226.423,249.533
0.066,7.381,1.697,1.697,220.549,226.216,249.678
0.067,7.618,1.721,1.721,220.566,226.021,249.811
0.069,7.832,1.747,1.747,220.578,225.843,249.929
0.070,8.017,1.772,1.772,220.584,225.687,250.029
0.071,8.171,1.795,1.795,220.583,225.555,250.108
0.072,8.295,1.814,1.814,220.576,225.447,250.169
0.073,8.393,1.829,1.829,220.565,225.360,250.213
0.075,8.469,1.843,1.843,220.552,225.292,250.244
0.076,8.526,1.854,1.854,220.536,225.241,250.263
0.077,8.566,1.864,1.864,220.520,225.205,250.273
0.078,8.594,1.874,1.874,220.505,225.182,250.276
0.079,8.612,1.883,1.883,220.492,225.170,250.274
0.081,8.622,1.892,1.892,220.483,225.167,250.269
0.082,8.630,1.903,1.903,220.479,225.170,250.265
0.083,8.639,1.914,1.914,220.480,225.179,250.262
0.084,8.653,1.924,1.924,220.489,225.190,250.264
0.085,8.672,1.933,1.933,220.503,225.202,250.269
0.087,8.692,1.939,1.939,220.519,225.212,250.277
0.088,8.711,1.941,1.941,220.533,225.218,250.286
0.089,8.724,1.938,1.938,220.544,225.218,250.294
0.090,8.735,1.930,1.930,220.546,225.210,250.301
0.091,8.756,1.916,1.916,220.537,225.191,250.305
0.093,8.796,1.895,1.895,220.515,225.159,250.305
0.094,8.858,1.873,1.873,220.474,225.112,250.298
0.095,8.948,1.852,1.852,220.413,225.048,250.285
0.096,9.069,1.836,1.836,220.328,224.964,250.262
0.097,9.227,1.828,1.828,220.215,224.858,250.230
0.099,9.422,1.832,1.832,220.075,224.730,250.187
0.100,9.647,1.852,1.852,219.911,224.584,250.135
0.101,9.897,1.890,1.890,219.729,224.424,250.076
0.102,10.163,1.950,1.950,219.535,224.254,250.012
0.103,10.438,2.026,2.026,219.334,224.078,249.945
0.105,10.716,2.114,2.114,219.130,223.902,249.876
0.106,10.989,2.210,2.210,218.931,223.728,249.808
0.107,11.250,2.309,2.309,218.740,223.563,249.742
0.108,11.492,2.405,2.405,218.564,223.409,249.681
0.110,11.708,2.493,2.493,218.407,223.271,249.625
0.111,11.890,2.570,2.570,218.276,223.154,249.578
0.112,12.032,2.631,2.631,218.175,223.061,249.540
0.113,12.135,2.674,2.674,218.104,222.992,249.512
0.114,12.203,2.703,2.703,218.059,222.946,249.492
0.116,12.240,2.719,2.719,218.037,222.918,249.481
0.117,12.253,2.724,2.724,218.034,222.907,249.476
0.118,12.265,2.721,2.721,218.046,222.909,249.478
0.119,12.293,2.711,2.711,218.071,222.921,249.484
0.120,12.333,2.698,2.698,218.103,222.942,249.494
0.122,12.380,2.682,2.682,218.139,222.969,249.507
0.123,12.429,2.666,2.666,218.177,222.997,249.522
0.124,12.477,2.651,2.651,218.211,223.026,249.538
0.125,12.518,2.636,2.636,218.239,223.052,249.554
0.126,12.551,2.623,2.623,218.258,223.073,249.569
0.128,12.574,2.613,2.613,218.269,223.089,249.584
0.129,12.591,2.604,2.604,218.272,223.099,249.597
0.130,12.604,2.600,2.600,218.268,223.103,249.609
0.131,12.619,2.598,2.598,218.258,223.101,249.620
0.132,12.638,2.602,2.602,218.244,223.093,249.629
0.134,12.662,2.608,2.608,218.226,223.079,249.638
0.135,12.692,2.618,2.618,218.205,223.059,249.644
0.136,12.728,2.628,2.628,218.182,223.031,249.649
0.137,12.770,2.639,2.639,218.158,222.997,249.652
0.138,12.817,2.649,2.649,218.135,222.956,249.654
0.140,12.870,2.657,2.657,218.112,222.908,249.653
0.141,12.929,2.662,2.662,218.090,222.854,249.651
0.142,12.990,2.663,2.663,218.067,222.797,249.649
0.143,13.053,2.659,2.659,218.043,222.739,249.648
0.144,13.116,2.651,2.651,218.016,222.682,249.650
0.146,13.178,2.638,2.638,217.985,222.629,249.655
0.147,13.238,2.620,2.620,217.949,222.582,249.664
0.148,13.297,2.599,2.599,217.906,222.544,249.679
0.149,13.358,2.573,2.573,217.856,222.517,249.701
0.150,13.426,2.544,2.544,217.797,222.503,249.731
0.152,13.505,2.510,2.510,217.728,222.505,249.771
0.153,13.602,2.473,2.473,217.648,222.525,249.821
0.154,13.719,2.431,2.431,217.556,222.565,249.882
0.155,13.857,2.387,2.387,217.453,222.619,249.956
0.156,14.015,2.338,2.338,217.339,222.683,250.044
0.158,14.189,2.287,2.287,217.216,222.752,250.146
0.159,14.378,2.232,2.232,217.084,222.819,250.263
0.160,14.581,2.174,2.174,216.944,222.880,250.397
0.161,14.797,2.113,2.113,216.798,222.930,250.548
0.162,15.028,2.049,2.049,216.645,222.963,250.718
0.164,15.274,1.985,1.985,216.488,222.974,250.907
0.165,15.538,1.925,1.925,216.327,222.958,251.116
0.166,15.826,1.872,1.872,216.162,222.908,251.347
0.167,16.141,1.831,1.831,215.995,222.821,251.599
0.168,16.484,1.806,1.806,215.827,222.697,251.871
0.170,16.852,1.800,1.800,215.660,222.540,252.159
0.171,17.238,1.818,1.818,215.496,222.357,252.456
0.172,17.636,1.863,1.863,215.336,222.153,252.758
0.173,18.039,1.935,1.935,215.182,221.934,253.059
0.174,18.440,2.030,2.030,215.036,221.705,253.355
0.176,18.832,2.141,2.141,214.900,221.473,253.641
0.177,19.208,2.262,2.262,214.776,221.244,253.910
0.178,19.559,2.388,2.388,214.665,221.022,254.159
0.179,19.879,2.511,2.511,214.569,220.813,254.382
0.181,20.159,2.626,2.626,214.490,220.624,254.573
0.182,20.395,2.728,2.728,214.429,220.458,254.730
0.183,20.588,2.810,2.810,214.385,220.316,254.853
0.184,20.744,2.874,2.874,214.357,220.195,254.947
0.185,20.867,2.923,2.923,214.342,220.094,255.016
0.187,20.964,2.959,2.959,214.339,220.009,255.062
0.188,21.038,2.986,2.986,214.346,219.940,255.089
0.189,21.098,3.005,3.005,214.360,219.884,255.102
0.190,21.147,3.020,3.020,214.381,219.840,255.104
0.191,21.191,3.033,3.033,214.407,219.804,255.097
0.193,21.232,3.047,3.047,214.435,219.776,255.087
0.194,21.270,3.064,3.064,214.464,219.754,255.077
0.195,21.305,3.082,3.082,214.491,219.735,255.069
0.196,21.336,3.102,3.102,214.517,219.717,255.067
0.197,21.365,3.122,3.122,214.541,219.699,255.071
0.199,21.395,3.143,3.143,214.561,219.681,255.081
0.200,21.427,3.165,3.165,214.579,219.659,255.098
0.201,21.465,3.185,3.185,214.593,219.634,255.122
0.202,21.511,3.205,3.205,214.603,219.604,255.155
0.203,21.566,3.224,3.224,214.609,219.566,255.195
0.205,21.633,3.243,3.243,214.610,219.521,255.244
0.206,21.712,3.264,3.264,214.607,219.466,255.302
0.207,21.807,3.288,3.288,214.599,219.401,255.370
0.208,21.918,3.317,3.317,214.586,219.323,255.447
0.209,22.046,3.352,3.352,214.567,219.232,255.535
0.211,22.190,3.394,3.394,214.542,219.129,255.632
0.212,22.347,3.446,3.446,214.511,219.015,255.737
0.213,22.516,3.509,3.509,214.475,218.894,255.848
0.214,22.694,3.581,3.581,214.433,218.766,255.965
0.215,22.878,3.661,3.661,214.386,218.633,256.084
0.217,23.068,3.747,3.747,214.333,218.498,256.206
0.218,23.259,3.838,3.838,214.275,218.362,256.328
0.219,23.451,3.932,3.932,214.211,218.228,256.449
0.220,23.642,4.027,4.027,214.141,218.097,256.568
0.221,23.828,4.122,4.122,214.066,217.970,256.683
0.223,24.009,4.215,4.215,213.986,217.851,256.793
0.224,24.183,4.304,4.304,213.901,217.740,256.897
0.225,24.350,4.390,4.390,213.813,217.637,256.994
0.226,24.510,4.471,4.471,213.722,217.541,257.085
0.227,24.663,4.549,4.549,213.631,217.452,257.169
0.229,24.807,4.623,4.623,213.542,217.371,257.247
0.230,24.942,4.693,4.693,213.454,217.296,257.319
0.231,25.068,4.758,4.758,213.371,217.228,257.383
0.232,25.183,4.818,4.818,213.293,217.166,257.441
0.233,25.287,4.873,4.873,213.222,217.109,257.492
0.235,25.379,4.924,4.924,213.160,217.058,257.536
0.236,25.458,4.970,4.970,213.107,217.013,257.573
0.237,25.523,5.013,5.013,213.065,216.972,257.603
0.238,25.576,5.051,5.051,213.035,216.936,257.627
0.239,25.619,5.087,5.087,213.015,216.903,257.645
0.241,25.654,5.119,5.119,213.005,216.872,257.659
0.242,25.684,5.149,5.149,213.004,216.843,257.669
0.243,25.715,5.176,5.176,213.011,216.815,257.676
0.244,25.747,5.201,5.201,213.026,216.786,257.681
0.245,25.785,5.224,5.224,213.049,216.757,257.685
0.247,25.827,5.246,5.246,213.077,216.725,257.689
0.248,25.876,5.266,5.266,213.111,216.691,257.694
0.249,25.931,5.286,5.286,213.151,216.652,257.701
0.250,25.993,5.305,5.305,213.194,216.609,257.710
0.252,26.061,5.323,5.323,213.241,216.562,257.722
0.253,26.135,5.342,5.342,213.291,216.510,257.736
0.254,26.211,5.361,5.361,213.342,216.455,257.750
0.255,26.288,5.379,5.379,213.394,216.399,257.763
0.256,26.366,5.397,5.397,213.445,216.342,257.774
0.258,26.442,5.413,5.413,213.495,216.285,257.782
0.259,26.515,5.426,5.426,213.542,216.230,257.786
0.260,26.583,5.437,5.437,213.586,216.178,257.784
0.261,26.646,5.444,5.444,213.625,216.129,257.775
0.262,26.704,5.448,5.448,213.659,216.085,257.757
0.264,26.758,5.446,5.446,213.686,216.047,257.730
0.265,26.810,5.441,5.441,213.706,216.016,257.693
0.266,26.863,5.432,5.432,213.719,215.992,257.648
0.267,26.915,5.420,5.420,213.726,215.975,257.600
0.268,26.963,5.406,5.406,213.728,215.963,257.553
0.270,27.004,5.390,5.390,213.726,215.957,257.512
0.271,27.035,5.372,5.372,213.722,215.956,257.481
0.272,27.052,5.355,5.355,213.717,215.960,257.466
0.273,27.062,5.338,5.338,213.711,215.968,257.470
0.274,27.093,5.321,5.321,213.707,215.979,257.498
0.276,27.152,5.304,5.304,213.704,215.994,257.555
0.277,27.244,5.286,5.286,213.705,216.011,257.645
0.278,27.374,5.265,5.265,213.710,216.030,257.774
0.279,27.543,5.242,5.242,213.720,216.050,257.941
0.280,27.744,5.214,5.214,213.735,216.072,258.141
0.282,27.970,5.182,5.182,213.754,216.095,258.365
0.283,28.213,5.145,5.145,213.777,216.119,258.606
0.284,28.465,5.101,5.101,213.803,216.142,258.855
0.285,28.717,5.053,5.053,213.831,216.165,259.104
0.286,28.962,5.002,5.002,213.861,216.188,259.347
0.288,29.192,4.950,4.950,213.892,216.210,259.573
0.289,29.399,4.900,4.900,213.925,216.231,259.777
0.290,29.575,4.852,4.852,213.958,216.250,259.949
0.291,29.713,4.808,4.808,213.990,216.267,260.082
0.292,29.806,4.772,4.772,214.022,216.281,260.168
0.294,29.859,4.743,4.743,214.054,216.292,260.209
0.295,29.895,4.722,4.722,214.089,216.299,260.213
0.296,29.942,4.707,4.707,214.129,216.299,260.190
0.297,30.006,4.695,4.695,214.177,216.293,260.147
0.298,30.086,4.684,4.684,214.234,216.278,260.093
0.300,30.179,4.672,4.672,214.304,216.253,260.036
0.301,30.284,4.656,4.656,214.387,216.218,259.986
0.302,30.401,4.635,4.635,214.488,216.170,259.949
0.303,30.536,4.606,4.606,214.608,216.108,259.935
0.304,30.697,4.568,4.568,214.748,216.032,259.953
0.306,30.895,4.524,4.524,214.913,215.939,260.010
0.307,31.136,4.475,4.475,215.102,215.830,260.113
0.308,31.418,4.424,4.424,215.313,215.708,260.255
0.309,31.734,4.375,4.375,215.540,215.575,260.431
0.310,32.076,4.329,4.329,215.779,215.436,260.632
0.312,32.437,4.288,4.288,216.026,215.293,260.853
0.313,32.807,4.256,4.256,216.276,215.151,261.086
0.314,33.178,4.235,4.235,216.525,215.013,261.324
0.315,33.542,4.224,4.224,216.769,214.882,261.560
0.316,33.890,4.221,4.221,217.003,214.762,261.788
0.318,34.213,4.225,4.225,217.222,214.656,262.000
0.319,34.503,4.234,4.234,217.423,214.568,262.190
0.320,34.752,4.246,4.246,217.600,214.501,262.350
0.321,34.958,4.259,4.259,217.754,214.455,262.480
0.323,35.127,4.273,4.273,217.886,214.428,262.583
0.324,35.265,4.284,4.284,217.998,214.419,262.663
0.325,35.378,4.293,4.293,218.092,214.423,262.724
0.326,35.470,4.298,4.298,218.171,214.440,262.769
0.327,35.548,4.299,4.299,218.237,214.466,262.802
0.329,35.617,4.296,4.296,218.292,214.499,262.827
0.330,35.680,4.289,4.289,218.338,214.537,262.847
0.331,35.740,4.277,4.277,218.377,214.578,262.867
0.332,35.798,4.260,4.260,218.411,214.619,262.890
0.333,35.857,4.238,4.238,218.443,214.658,262.921
0.335,35.919,4.210,4.210,218.475,214.692,262.961
0.336,35.984,4.179,4.179,218.505,214.723,263.010
0.337,36.055,4.145,4.145,218.534,214.749,263.069
0.338,36.130,4.111,4.111,218.561,214.773,263.135
0.339,36.209,4.079,4.079,218.584,214.794,263.207
0.341,36.292,4.050,4.050,218.605,214.813,263.286
0.342,36.378,4.027,4.027,218.621,214.830,263.368
0.343,36.466,4.010,4.010,218.632,214.846,263.454
0.344,36.556,4.002,4.002,218.639,214.861,263.543
0.345,36.648,4.002,4.002,218.639,214.876,263.633
0.347,36.740,4.008,4.008,218.632,214.891,263.724
0.348,36.832,4.017,4.017,218.618,214.907,263.814
0.349,36.925,4.026,4.026,218.597,214.924,263.902
0.350,37.019,4.034,4.034,218.570,214.943,263.990
0.351,37.113,4.037,4.037,218.537,214.963,264.076
0.353,37.208,4.034,4.034,218.500,214.985,264.161
0.354,37.304,4.022,4.022,218.459,215.009,264.245
0.355,37.401,4.000,4.000,218.417,215.036,264.328
0.356,37.498,3.969,3.969,218.372,215.065,264.409
0.357,37.595,3.932,3.932,218.327,215.098,264.488
0.359,37.692,3.891,3.891,218.283,215.133,264.567
0.360,37.788,3.847,3.847,218.240,215.173,264.643
0.361,37.884,3.803,3.803,218.199,215.216,264.719
0.362,37.980,3.762,3.762,218.161,215.263,264.792
0.363,38.074,3.724,3.724,218.127,215.313,264.864
0.365,38.166,3.691,3.691,218.096,215.364,264.934
0.366,38.255,3.665,3.665,218.069,215.416,265.001
0.367,38.340,3.643,3.643,218.045,215.466,265.066
0.368,38.420,3.626,3.626,218.025,215.514,265.126
0.369,38.494,3.612,3.612,218.008,215.558,265.184
0.371,38.561,3.600,3.600,217.995,215.597,265.237
0.372,38.621,3.590,3.590,217.986,215.629,265.286
0.373,38.671,3.580,3.580,217.980,215.654,265.330
0.374,38.713,3.571,3.571,217.978,215.669,265.369
0.375,38.747,3.561,3.561,217.979,215.673,265.403
0.377,38.777,3.551,3.551,217.984,215.667,265.432
0.378,38.807,3.541,3.541,217.992,215.653,265.458
0.379,38.840,3.533,3.533,218.001,215.635,265.482
0.380,38.874,3.525,3.525,218.012,215.614,265.508
0.381,38.911,3.519,3.519,218.023,215.594,265.536
0.383,38.949,3.515,3.515,218.034,215.577,265.568
0.384,38.991,3.513,3.513,218.043,215.566,265.607
0.385,39.039,3.513,3.513,218.051,215.563,265.655
0.386,39.098,3.515,3.515,218.056,215.573,265.713
0.387,39.172,3.517,3.517,218.057,215.596,265.783
0.389,39.265,3.516,3.516,218.054,215.637,265.867
0.390,39.382,3.513,3.513,218.046,215.697,265.967
0.391,39.521,3.505,3.505,218.033,215.775,266.081
0.392,39.679,3.491,3.491,218.017,215.868,266.208
0.394,39.852,3.470,3.470,217.997,215.974,266.343
0.395,40.037,3.440,3.440,217.975,216.090,266.486
0.396,40.230,3.402,3.402,217.951,216.212,266.633
0.397,40.428,3.357,3.357,217.926,216.339,266.783
0.398,40.626,3.308,3.308,217.900,216.468,266.932
0.400,40.822,3.256,3.256,217.876,216.595,267.079
0.401,41.012,3.203,3.203,217.852,216.719,267.221
0.402,41.191,3.151,3.151,217.830,216.835,267.355
0.403,41.356,3.102,3.102,217.810,216.943,267.479
0.404,41.506,3.057,3.057,217.795,217.039,267.593
0.406,41.642,3.018,3.018,217.785,217.125,267.697
0.407,41.764,2.985,2.985,217.782,217.200,267.794
0.408,41.877,2.957,2.957,217.790,217.264,267.886
0.409,41.983,2.935,2.935,217.809,217.318,267.975
0.410,42.087,2.917,2.917,217.843,217.363,268.063
0.412,42.194,2.906,2.906,217.892,217.398,268.151
0.413,42.310,2.899,2.899,217.959,217.423,268.242
0.414,42.440,2.897,2.897,218.047,217.439,268.338
0.415,42.590,2.900,2.900,218.156,217.447,268.440
0.416,42.764,2.907,2.907,218.290,217.446,268.551
0.418,42.965,2.917,2.917,218.449,217.437,268.672
0.419,43.190,2.928,2.928,218.632,217.420,268.803
0.420,43.434,2.941,2.941,218.833,217.398,268.939
0.421,43.692,2.954,2.954,219.048,217.370,269.079
0.422,43.958,2.965,2.965,219.272,217.340,269.220
0.424,44.227,2.975,2.975,219.500,217.307,269.359
0.425,44.494,2.981,2.981,219.728,217.272,269.494
0.426,44.753,2.985,2.985,219.950,217.238,269.622
0.427,44.998,2.986,2.986,220.163,217.206,269.740
0.428,45.225,2.986,2.986,220.361,217.176,269.845
0.430,45.427,2.985,2.985,220.540,217.150,269.935
0.431,45.599,2.985,2.985,220.695,217.130,270.007
0.432,45.738,2.987,2.987,220.823,217.115,270.060
0.433,45.850,2.991,2.991,220.928,217.103,270.096
0.434,45.938,2.999,2.999,221.013,217.091,270.116
0.436,46.009,3.011,3.011,221.083,217.077,270.123
0.437,46.069,3.025,3.025,221.140,217.059,270.120
0.438,46.125,3.042,3.042,221.188,217.034,270.107
0.439,46.184,3.059,3.059,221.231,216.999,270.088
0.440,46.251,3.076,3.076,221.273,216.952,270.064
0.442,46.332,3.090,3.090,221.318,216.890,270.038
0.443,46.430,3.101,3.101,221.368,216.811,270.011
0.444,46.548,3.108,3.108,221.428,216.712,269.987
0.445,46.691,3.110,3.110,221.502,216.591,269.966
0.446,46.856,3.105,3.105,221.588,216.451,269.951
0.448,47.038,3.096,3.096,221.687,216.298,269.942
0.449,47.230,3.081,3.081,221.795,216.140,269.940
0.450,47.426,3.062,3.062,221.912,215.982,269.947
0.451,47.621,3.038,3.038,222.035,215.832,269.962
0.452,47.810,3.010,3.010,222.163,215.695,269.987
0.454,47.989,2.980,2.980,222.294,215.578,270.023
0.455,48.156,2.946,2.946,222.425,215.488,270.071
0.456,48.311,2.909,2.909,222.557,215.431,270.130
0.457,48.460,2.873,2.873,222.686,215.414,270.204
0.458,48.615,2.838,2.838,222.811,215.443,270.291
0.460,48.791,2.806,2.806,222.930,215.522,270.392
0.461,48.992,2.780,2.780,223.043,215.644,270.505
0.462,49.217,2.761,2.761,223.149,215.804,270.624
0.463,49.463,2.751,2.751,223.247,215.993,270.747
0.465,49.723,2.752,2.752,223.337,216.204,270.869
0.466,49.991,2.766,2.766,223.418,216.431,270.987
0.467,50.260,2.790,2.790,223.490,216.665,271.097
0.468,50.523,2.823,2.823,223.551,216.901,271.195
0.469,50.772,2.863,2.863,223.601,217.131,271.278
0.471,51.001,2.906,2.906,223.640,217.347,271.342
0.472,51.202,2.950,2.950,223.666,217.543,271.383
0.473,51.372,2.993,2.993,223.679,217.712,271.398
0.474,51.513,3.032,3.032,223.680,217.852,271.389
0.475,51.633,3.065,3.065,223.671,217.969,271.363
0.477,51.738,3.091,3.091,223.653,218.066,271.328
0.478,51.831,3.111,3.111,223.628,218.148,271.290
0.479,51.915,3.124,3.124,223.597,218.218,271.257
0.480,51.990,3.132,3.132,223.562,218.281,271.237
0.481,52.061,3.134,3.134,223.526,218.342,271.236
0.483,52.137,3.132,3.132,223.489,218.404,271.262
0.484,52.234,3.126,3.126,223.453,218.472,271.321
0.485,52.366,3.116,3.116,223.420,218.549,271.422
0.486,52.543,3.103,3.103,223.392,218.641,271.571
0.487,52.773,3.088,3.088,223.369,218.749,271.773
0.489,53.049,3.072,3.072,223.352,218.872,272.020
0.490,53.362,3.056,3.056,223.340,219.006,272.303
