"T","Distance","Radius","FreeRadius","X","Y","Z"
0.000,0.000,1.061,1.061,219.541,229.174,245.936
0.001,0.187,1.079,1.079,219.446,229.211,246.092
0.002,0.372,1.096,1.096,219.352,229.249,246.248
0.003,0.556,1.115,1.115,219.260,229.286,246.402
0.004,0.735,1.133,1.133,219.170,229.323,246.553
0.005,0.911,1.153,1.153,219.083,229.359,246.701
0.006,1.081,1.173,1.173,219.000,229.395,246.845
0.007,1.244,1.194,1.194,218.922,229.430,246.983
0.008,1.399,1.216,1.216,218.849,229.465,247.116
0.009,1.545,1.240,1.240,218.783,229.498,247.243
0.010,1.682,1.265,1.265,218.725,229.531,247.361
0.011,1.807,1.291,1.291,218.674,229.563,247.471
0.012,1.921,1.318,1.318,218.632,229.593,247.572
0.013,2.022,1.345,1.345,218.599,229.623,247.663
0.014,2.110,1.371,1.371,218.577,229.651,247.744
0.015,2.187,1.395,1.395,218.562,229.678,247.814
0.016,2.253,1.416,1.416,218.554,229.705,247.874
0.017,2.311,1.434,1.434,218.550,229.733,247.925
0.018,2.362,1.447,1.447,218.550,229.760,247.968
0.019,2.406,1.455,1.455,218.551,229.789,248.001
0.020,2.446,1.456,1.456,218.551,229.819,248.027
0.021,2.482,1.451,1.451,218.549,229.851,248.045
0.022,2.519,1.440,1.440,218.543,229.886,248.055
0.023,2.558,1.425,1.425,218.532,229.923,248.059
0.024,2.603,1.406,1.406,218.513,229.963,248.057
0.025,2.656,1.384,1.384,218.485,230.008,248.049
0.026,2.719,1.362,1.362,218.446,230.056,248.035
0.027,2.794,1.339,1.339,218.396,230.108,248.017
0.028,2.878,1.318,1.318,218.337,230.164,247.994
0.029,2.970,1.299,1.299,218.270,230.222,247.970
0.030,3.069,1.284,1.284,218.197,230.282,247.943
0.031,3.171,1.273,1.273,218.118,230.343,247.916
0.032,3.277,1.266,1.266,218.037,230.404,247.889
0.034,3.382,1.262,1.262,217.955,230.465,247.864
0.035,3.486,1.262,1.262,217.873,230.525,247.841
0.036,3.586,1.264,1.264,217.793,230.582,247.822
0.037,3.682,1.270,1.270,217.716,230.637,247.807
0.038,3.770,1.277,1.277,217.645,230.688,247.798
0.039,3.850,1.286,1.286,217.580,230.734,247.795
0.040,3.920,1.296,1.296,217.524,230.776,247.801
0.041,3.982,1.307,1.307,217.476,230.813,247.813
0.042,4.037,1.319,1.319,217.435,230.845,247.831
0.043,4.088,1.331,1.331,217.400,230.874,247.853
0.044,4.135,1.343,1.343,217.369,230.900,247.879
0.045,4.180,1.354,1.354,217.341,230.924,247.905
0.046,4.223,1.364,1.364,217.316,230.946,247.931
0.047,4.264,1.373,1.373,217.291,230.967,247.956
0.048,4.303,1.381,1.381,217.266,230.989,247.978
0.049,4.342,1.386,1.386,217.239,231.011,247.995
0.050,4.382,1.389,1.389,217.209,231.034,248.006
0.051,4.424,1.390,1.390,217.175,231.059,248.010
0.052,4.473,1.387,1.387,217.135,231.087,248.005
0.053,4.531,1.382,1.382,217.089,231.119,247.990
0.054,4.599,1.374,1.374,217.037,231.154,247.966
0.055,4.674,1.364,1.364,216.980,231.194,247.936
0.056,4.756,1.352,1.352,216.921,231.238,247.902
0.057,4.842,1.338,1.338,216.860,231.289,247.866
0.058,4.932,1.323,1.323,216.800,231.345,247.831
0.059,5.024,1.306,1.306,216.741,231.408,247.799
0.060,5.117,1.288,1.288,216.684,231.477,247.773
0.061,5.212,1.270,1.270,216.633,231.555,247.754
0.062,5.309,1.251,1.251,216.587,231.640,247.746
0.063,5.411,1.232,1.232,216.548,231.735,247.750
0.064,5.521,1.213,1.213,216.519,231.838,247.770
0.065,5.641,1.196,1.196,216.499,231.951,247.806
0.066,5.776,1.181,1.181,216.491,232.074,247.861
0.067,5.925,1.168,1.168,216.493,232.205,247.934
0.068,6.088,1.158,1.158,216.506,232.342,248.021
0.069,6.262,1.151,1.151,216.527,232.482,248.121
0.070,6.445,1.149,1.149,216.557,232.625,248.231
0.071,6.634,1.151,1.151,216.594,232.768,248.349
0.072,6.827,1.158,1.158,216.637,232.909,248.473
0.073,7.020,1.169,1.169,216.686,233.046,248.600
0.074,7.211,1.185,1.185,216.740,233.177,248.729
0.075,7.397,1.204,1.204,216.798,233.299,248.856
0.076,7.575,1.227,1.227,216.858,233.412,248.980
0.077,7.742,1.253,1.253,216.921,233.512,249.098
0.078,7.895,1.281,1.281,216.985,233.598,249.208
0.079,8.035,1.312,1.312,217.049,233.669,249.309
0.080,8.160,1.344,1.344,217.114,233.725,249.401
0.081,8.275,1.378,1.378,217.178,233.769,249.485
0.082,8.379,1.413,1.413,217.241,233.801,249.562
0.083,8.475,1.448,1.448,217.303,233.822,249.632
0.084,8.563,1.482,1.482,217.363,233.834,249.696
0.085,8.646,1.514,1.514,217.420,233.837,249.755
0.086,8.723,1.543,1.543,217.475,233.834,249.810
0.087,8.796,1.568,1.568,217.526,233.824,249.861
0.088,8.865,1.589,1.589,217.574,233.811,249.909
0.089,8.931,1.604,1.604,217.617,233.793,249.955
0.090,8.993,1.612,1.612,217.656,233.774,250.000
0.091,9.052,1.613,1.613,217.689,233.753,250.044
0.092,9.107,1.606,1.606,217.717,233.733,250.087
0.093,9.158,1.594,1.594,217.741,233.715,250.128
0.094,9.203,1.576,1.576,217.761,233.700,250.165
0.095,9.240,1.554,1.554,217.778,233.691,250.198
0.096,9.270,1.530,1.530,217.793,233.688,250.223
0.097,9.294,1.504,1.504,217.807,233.693,250.241
0.098,9.315,1.478,1.478,217.820,233.708,250.250
0.099,9.345,1.453,1.453,217.833,233.734,250.248
0.101,9.389,1.430,1.430,217.847,233.773,250.234
0.102,9.451,1.410,1.410,217.863,233.827,250.207
0.103,9.535,1.394,1.394,217.882,233.897,250.164
0.104,9.642,1.382,1.382,217.903,233.984,250.106
0.105,9.775,1.374,1.374,217.929,234.090,250.030
0.106,9.932,1.370,1.370,217.958,234.213,249.937
0.107,10.108,1.370,1.370,217.991,234.351,249.832
0.108,10.300,1.373,1.373,218.026,234.500,249.716
0.109,10.502,1.380,1.380,218.063,234.656,249.592
0.110,10.711,1.390,1.390,218.101,234.816,249.463
0.111,10.922,1.404,1.404,218.139,234.977,249.332
0.112,11.131,1.422,1.422,218.177,235.136,249.202
0.113,11.333,1.443,1.443,218.214,235.289,249.076
0.114,11.523,1.466,1.466,218.249,235.432,248.956
0.115,11.698,1.490,1.490,218.282,235.564,248.846
0.116,11.853,1.515,1.515,218.312,235.680,248.747
0.117,11.984,1.540,1.540,218.338,235.777,248.664
0.118,12.086,1.565,1.565,218.360,235.852,248.598
0.119,12.162,1.587,1.587,218.378,235.906,248.549
0.120,12.214,1.607,1.607,218.392,235.942,248.514
0.121,12.245,1.624,1.624,218.403,235.963,248.493
0.122,12.260,1.637,1.637,218.412,235.969,248.483
0.123,12.267,1.645,1.645,218.418,235.965,248.483
0.124,12.284,1.650,1.650,218.423,235.952,248.491
0.125,12.308,1.652,1.652,218.427,235.932,248.506
0.126,12.338,1.651,1.651,218.430,235.908,248.524
0.127,12.372,1.648,1.648,218.433,235.883,248.546
0.128,12.405,1.643,1.643,218.437,235.859,248.568
0.129,12.436,1.637,1.637,218.441,235.837,248.590
0.130,12.461,1.631,1.631,218.446,235.822,248.609
0.131,12.481,1.624,1.624,218.454,235.813,248.625
0.132,12.495,1.617,1.617,218.463,235.811,248.635
0.133,12.509,1.610,1.610,218.475,235.814,248.641
0.134,12.525,1.604,1.604,218.490,235.821,248.642
0.135,12.546,1.598,1.598,218.507,235.832,248.637
0.136,12.573,1.591,1.591,218.528,235.844,248.626
0.137,12.606,1.584,1.584,218.552,235.857,248.608
0.138,12.645,1.577,1.577,218.581,235.870,248.584
0.139,12.692,1.569,1.569,218.613,235.882,248.552
0.140,12.747,1.561,1.561,218.650,235.891,248.512
0.141,12.811,1.552,1.552,218.692,235.896,248.465
0.142,12.884,1.541,1.541,218.739,235.897,248.409
0.143,12.968,1.530,1.530,218.792,235.891,248.344
0.144,13.062,1.519,1.519,218.849,235.879,248.270
0.145,13.167,1.506,1.506,218.912,235.863,248.187
0.146,13.282,1.494,1.494,218.979,235.843,248.096
0.147,13.406,1.481,1.481,219.049,235.820,247.996
0.148,13.538,1.469,1.469,219.121,235.798,247.889
0.149,13.677,1.457,1.457,219.196,235.776,247.773
0.150,13.823,1.445,1.445,219.273,235.756,247.651
0.151,13.975,1.434,1.434,219.350,235.740,247.521
0.152,14.132,1.424,1.424,219.427,235.730,247.384
0.153,14.295,1.415,1.415,219.504,235.726,247.241
0.154,14.462,1.408,1.408,219.579,235.730,247.091
0.155,14.635,1.403,1.403,219.652,235.743,246.936
0.156,14.813,1.400,1.400,219.723,235.768,246.774
0.157,14.995,1.401,1.401,219.791,235.803,246.608
0.158,15.182,1.405,1.405,219.856,235.848,246.439
0.159,15.370,1.414,1.414,219.918,235.901,246.269
0.160,15.559,1.427,1.427,219.977,235.960,246.101
0.161,15.745,1.445,1.445,220.032,236.025,245.934
0.162,15.929,1.469,1.469,220.084,236.093,245.773
0.163,16.106,1.497,1.497,220.133,236.164,245.617
0.164,16.275,1.529,1.529,220.178,236.236,245.471
0.165,16.435,1.563,1.563,220.220,236.307,245.334
0.166,16.583,1.599,1.599,220.258,236.376,245.209
0.168,16.716,1.635,1.635,220.292,236.442,245.098
0.169,16.833,1.671,1.671,220.322,236.502,245.003
0.170,16.932,1.705,1.705,220.349,236.557,244.925
0.171,17.013,1.735,1.735,220.372,236.606,244.864
0.172,17.081,1.762,1.762,220.391,236.649,244.816
0.173,17.136,1.784,1.784,220.406,236.687,244.778
0.174,17.184,1.802,1.802,220.418,236.721,244.748
0.175,17.224,1.817,1.817,220.427,236.752,244.723
0.176,17.261,1.831,1.831,220.432,236.781,244.700
0.177,17.297,1.844,1.844,220.434,236.808,244.677
0.178,17.334,1.857,1.857,220.434,236.834,244.650
0.179,17.376,1.873,1.873,220.430,236.860,244.617
0.180,17.426,1.891,1.891,220.424,236.886,244.575
0.181,17.488,1.914,1.914,220.415,236.913,244.521
0.182,17.563,1.943,1.943,220.404,236.943,244.452
0.183,17.655,1.979,1.979,220.391,236.975,244.367
0.184,17.763,2.020,2.020,220.375,237.009,244.266
0.185,17.884,2.066,2.066,220.357,237.044,244.152
0.186,18.015,2.117,2.117,220.337,237.079,244.027
0.187,18.154,2.170,2.170,220.314,237.113,243.894
0.188,18.299,2.226,2.226,220.290,237.145,243.755
0.189,18.447,2.282,2.282,220.264,237.174,243.612
0.190,18.597,2.339,2.339,220.236,237.198,243.467
0.191,18.744,2.394,2.394,220.206,237.217,243.324
0.192,18.888,2.447,2.447,220.175,237.230,243.184
0.193,19.027,2.498,2.498,220.142,237.236,243.050
0.194,19.157,2.545,2.545,220.107,237.234,242.924
0.195,19.279,2.589,2.589,220.070,237.222,242.808
0.196,19.391,2.631,2.631,220.033,237.200,242.705
0.197,19.495,2.670,2.670,219.994,237.171,242.613
0.198,19.593,2.707,2.707,219.954,237.134,242.532
0.199,19.686,2.742,2.742,219.913,237.091,242.460
0.200,19.774,2.775,2.775,219.873,237.044,242.397
0.201,19.859,2.806,2.806,219.832,236.994,242.342
0.202,19.941,2.835,2.835,219.791,236.943,242.293
0.203,20.019,2.863,2.863,219.751,236.892,242.250
0.204,20.093,2.889,2.889,219.712,236.842,242.212
0.205,20.162,2.913,2.913,219.673,236.795,242.178
0.206,20.227,2.935,2.935,219.636,236.752,242.147
0.207,20.286,2.956,2.956,219.601,236.715,242.118
0.208,20.339,2.975,2.975,219.567,236.685,242.090
0.209,20.387,2.992,2.992,219.535,236.663,242.062
0.210,20.431,3.008,3.008,219.505,236.647,242.034
0.211,20.472,3.021,3.021,219.475,236.637,242.007
0.212,20.513,3.032,3.032,219.446,236.630,241.980
0.213,20.553,3.042,3.042,219.416,236.627,241.953
0.214,20.593,3.049,3.049,219.386,236.626,241.926
0.215,20.635,3.055,3.055,219.354,236.625,241.900
0.216,20.678,3.058,3.058,219.320,236.624,241.873
0.217,20.723,3.061,3.061,219.284,236.621,241.846
0.218,20.771,3.061,3.061,219.245,236.615,241.820
0.219,20.822,3.061,3.061,219.202,236.605,241.793
0.220,20.878,3.059,3.059,219.156,236.590,241.766
0.221,20.940,3.056,3.056,219.104,236.568,241.739
0.222,21.007,3.052,3.052,219.049,236.541,241.712
0.223,21.080,3.047,3.047,218.990,236.508,241.686
0.224,21.156,3.041,3.041,218.928,236.470,241.661
0.225,21.234,3.035,3.035,218.865,236.430,241.638
0.226,21.314,3.028,3.028,218.801,236.388,241.617
0.227,21.393,3.020,3.020,218.737,236.345,241.600
0.228,21.470,3.013,3.013,218.674,236.303,241.587
0.229,21.544,3.005,3.005,218.613,236.262,241.577
0.230,21.614,2.998,2.998,218.554,236.223,241.573
0.231,21.679,2.991,2.991,218.500,236.189,241.574
0.232,21.738,2.984,2.984,218.450,236.159,241.582
0.234,21.790,2.977,2.977,218.405,236.135,241.596
0.235,21.837,2.971,2.971,218.366,236.118,241.617
0.236,21.881,2.966,2.966,218.334,236.108,241.644
0.237,21.921,2.960,2.960,218.308,236.102,241.674
0.238,21.958,2.955,2.955,218.288,236.101,241.705
0.239,21.991,2.950,2.950,218.273,236.103,241.734
0.240,22.017,2.946,2.946,218.263,236.106,241.758
0.241,22.036,2.941,2.941,218.258,236.110,241.776
0.242,22.046,2.937,2.937,218.257,236.113,241.785
0.243,22.050,2.933,2.933,218.261,236.113,241.782
0.244,22.069,2.929,2.929,218.269,236.111,241.765
0.245,22.106,2.925,2.925,218.280,236.104,241.732
0.246,22.162,2.923,2.923,218.295,236.091,241.679
0.247,22.241,2.923,2.923,218.312,236.072,241.604
0.248,22.344,2.924,2.924,218.333,236.045,241.506
0.249,22.470,2.929,2.929,218.356,236.010,241.388
0.250,22.615,2.937,2.937,218.380,235.969,241.251
0.251,22.774,2.948,2.948,218.407,235.923,241.101
0.252,22.945,2.965,2.965,218.434,235.872,240.940
0.253,23.125,2.986,2.986,218.462,235.818,240.771
0.254,23.308,3.012,3.012,218.491,235.761,240.599
0.255,23.493,3.042,3.042,218.519,235.703,240.426
0.256,23.675,3.075,3.075,218.547,235.644,240.256
0.257,23.851,3.111,3.111,218.574,235.585,240.093
0.258,24.017,3.148,3.148,218.600,235.528,239.939
0.259,24.170,3.185,3.185,218.624,235.473,239.798
0.260,24.306,3.221,3.221,218.647,235.421,239.674
0.261,24.423,3.256,3.256,218.666,235.373,239.569
0.262,24.523,3.288,3.288,218.684,235.329,239.481
0.263,24.608,3.317,3.317,218.700,235.288,239.408
0.264,24.680,3.341,3.341,218.714,235.249,239.349
0.265,24.741,3.362,3.362,218.726,235.214,239.302
0.266,24.793,3.380,3.380,218.737,235.180,239.264
0.267,24.838,3.394,3.394,218.747,235.147,239.235
0.268,24.878,3.406,3.406,218.756,235.116,239.211
0.269,24.915,3.416,3.416,218.764,235.086,239.191
0.270,24.950,3.424,3.424,218.771,235.057,239.173
0.271,24.985,3.430,3.430,218.779,235.027,239.156
0.272,25.021,3.435,3.435,218.786,234.997,239.138
0.273,25.059,3.439,3.439,218.793,234.967,239.115
0.274,25.101,3.444,3.444,218.801,234.935,239.088
0.275,25.148,3.448,3.448,218.811,234.903,239.056
0.276,25.201,3.454,3.454,218.825,234.869,239.019
0.277,25.260,3.461,3.461,218.844,234.833,238.975
0.278,25.328,3.471,3.471,218.870,234.795,238.925
0.279,25.405,3.484,3.484,218.905,234.756,238.869
0.280,25.493,3.501,3.501,218.949,234.714,238.805
0.281,25.593,3.522,3.522,219.004,234.669,238.735
0.282,25.708,3.548,3.548,219.072,234.622,238.656
0.283,25.837,3.580,3.580,219.155,234.572,238.569
0.284,25.984,3.618,3.618,219.253,234.519,238.473
0.285,26.150,3.661,3.661,219.368,234.462,238.369
0.286,26.336,3.708,3.708,219.502,234.402,238.256
0.287,26.540,3.759,3.759,219.654,234.338,238.134
0.288,26.760,3.813,3.813,219.820,234.272,238.006
0.289,26.990,3.869,3.869,219.996,234.205,237.874
0.290,27.227,3.926,3.926,220.180,234.137,237.741
0.291,27.467,3.984,3.984,220.369,234.070,237.608
0.292,27.706,4.041,4.041,220.558,234.004,237.478
0.293,27.940,4.098,4.098,220.745,233.939,237.353
0.294,28.164,4.154,4.154,220.925,233.878,237.235
0.295,28.375,4.207,4.207,221.097,233.820,237.126
0.296,28.569,4.258,4.258,221.256,233.767,237.029
0.297,28.742,4.307,4.307,221.399,233.720,236.945
0.298,28.889,4.353,4.353,221.523,233.679,236.877
0.299,29.007,4.396,4.396,221.625,233.645,236.827
0.301,29.099,4.435,4.435,221.705,233.618,236.793
0.302,29.166,4.470,4.470,221.765,233.595,236.774
0.303,29.213,4.501,4.501,221.807,233.576,236.766
0.304,29.244,4.528,4.528,221.834,233.559,236.767
0.305,29.266,4.549,4.549,221.846,233.543,236.776
0.306,29.288,4.567,4.567,221.846,233.525,236.788
0.307,29.315,4.580,4.580,221.836,233.505,236.803
0.308,29.348,4.590,4.590,221.817,233.481,236.818
0.309,29.388,4.597,4.597,221.793,233.452,236.829
0.310,29.435,4.600,4.600,221.763,233.417,236.836
0.311,29.489,4.601,4.601,221.732,233.373,236.835
0.312,29.553,4.599,4.599,221.700,233.319,236.824
0.313,29.628,4.595,4.595,221.669,233.254,236.801
0.314,29.713,4.590,4.590,221.641,233.181,236.767
0.315,29.808,4.583,4.583,221.617,233.100,236.725
0.316,29.910,4.574,4.574,221.599,233.013,236.675
0.317,30.016,4.564,4.564,221.587,232.922,236.621
0.318,30.126,4.553,4.553,221.585,232.829,236.563
0.319,30.236,4.540,4.540,221.592,232.736,236.503
0.320,30.347,4.526,4.526,221.610,232.644,236.445
0.321,30.456,4.511,4.511,221.641,232.556,236.388
0.322,30.564,4.495,4.495,221.686,232.473,236.336
0.323,30.672,4.478,4.478,221.747,232.397,236.289
0.324,30.782,4.460,4.460,221.825,232.330,236.251
0.325,30.897,4.441,4.441,221.920,232.273,236.222
0.326,31.021,4.421,4.421,222.035,232.228,236.203
0.327,31.157,4.400,4.400,222.166,232.193,236.194
0.328,31.305,4.379,4.379,222.311,232.165,236.193
0.329,31.463,4.357,4.357,222.468,232.143,236.199
0.330,31.631,4.334,4.334,222.634,232.125,236.209
0.331,31.805,4.310,4.310,222.807,232.108,236.223
0.332,31.983,4.286,4.286,222.984,232.090,236.239
0.333,32.164,4.261,4.261,223.163,232.070,236.256
0.334,32.345,4.236,4.236,223.341,232.045,236.272
0.335,32.523,4.210,4.210,223.516,232.014,236.286
0.336,32.698,4.186,4.186,223.686,231.974,236.296
0.337,32.868,4.163,4.163,223.847,231.923,236.301
0.338,33.032,4.142,4.142,223.999,231.859,236.299
0.339,33.192,4.125,4.125,224.139,231.782,236.289
0.340,33.351,4.112,4.112,224.271,231.694,236.272
0.341,33.511,4.103,4.103,224.395,231.597,236.246
0.342,33.674,4.101,4.101,224.515,231.493,236.211
0.343,33.839,4.105,4.105,224.632,231.384,236.167
0.344,34.009,4.116,4.116,224.749,231.273,236.113
0.345,34.184,4.135,4.135,224.867,231.162,236.049
0.346,34.364,4.159,4.159,224.988,231.052,235.974
0.347,34.550,4.187,4.187,225.116,230.946,235.889
0.348,34.744,4.219,4.219,225.251,230.846,235.793
0.349,34.947,4.254,4.254,225.396,230.755,235.685
0.350,35.160,4.290,4.290,225.553,230.673,235.565
0.351,35.387,4.326,4.326,225.724,230.604,235.433
0.352,35.628,4.361,4.361,225.909,230.547,235.289
0.353,35.879,4.394,4.394,226.103,230.502,235.137
0.354,36.138,4.424,4.424,226.305,230.467,234.978
0.355,36.403,4.451,4.451,226.512,230.442,234.814
0.356,36.670,4.475,4.475,226.721,230.425,234.648
0.357,36.937,4.496,4.496,226.929,230.415,234.482
0.358,37.198,4.515,4.515,227.133,230.411,234.319
0.359,37.452,4.531,4.532,227.330,230.412,234.159
0.360,37.694,4.546,4.547,227.518,230.418,234.006
0.361,37.922,4.559,4.560,227.694,230.426,233.862
0.362,38.131,4.571,4.571,227.855,230.437,233.729
0.363,38.318,4.581,4.582,227.998,230.448,233.609
0.364,38.480,4.591,4.591,228.120,230.459,233.504
0.365,38.618,4.600,4.599,228.224,230.470,233.413
0.366,38.737,4.606,4.605,228.311,230.483,233.334
0.368,38.839,4.611,4.610,228.385,230.497,233.264
0.369,38.929,4.613,4.612,228.448,230.513,233.202
0.370,39.011,4.612,4.611,228.502,230.533,233.144
0.371,39.089,4.608,4.607,228.551,230.557,233.088
0.372,39.167,4.600,4.599,228.597,230.586,233.033
0.373,39.248,4.588,4.587,228.643,230.620,232.975
0.374,39.336,4.571,4.571,228.691,230.660,232.913
0.375,39.435,4.549,4.550,228.745,230.707,232.844
0.376,39.549,4.523,4.525,228.806,230.763,232.766
0.377,39.680,4.495,4.499,228.878,230.826,232.677
0.378,39.831,4.468,4.473,228.962,230.899,232.574
0.379,40.002,4.443,4.448,229.057,230.982,232.459
0.380,40.191,4.421,4.427,229.163,231.073,232.332
0.381,40.396,4.405,4.411,229.276,231.173,232.193
0.382,40.615,4.397,4.402,229.395,231.283,232.045
0.383,40.848,4.398,4.401,229.519,231.401,231.887
0.384,41.093,4.411,4.411,229.645,231.527,231.720
0.385,41.348,4.436,4.432,229.773,231.663,231.545
0.386,41.613,4.473,4.465,229.900,231.807,231.364
0.387,41.885,4.520,4.507,230.025,231.959,231.176
0.388,42.163,4.576,4.559,230.146,232.120,230.983
0.389,42.448,4.639,4.618,230.261,232.289,230.786
0.390,42.736,4.707,4.685,230.368,232.466,230.585
0.391,43.028,4.779,4.757,230.467,232.651,230.381
0.392,43.321,4.853,4.835,230.559,232.840,230.178
0.393,43.611,4.927,4.916,230.645,233.032,229.978
0.394,43.895,5.000,5.000,230.725,233.223,229.784
0.395,44.170,5.071,5.086,230.801,233.411,229.597
0.396,44.434,5.139,5.172,230.875,233.593,229.422
0.397,44.682,5.203,5.258,230.947,233.767,229.261
0.398,44.911,5.265,5.342,231.018,233.930,229.116
0.399,45.119,5.323,5.423,231.090,234.079,228.990
0.400,45.303,5.378,5.500,231.164,234.212,228.886
0.401,45.462,5.429,5.572,231.241,234.326,228.806
0.402,45.596,5.476,5.638,231.321,234.419,228.754
0.403,45.707,5.520,5.696,231.407,234.487,228.731
0.404,45.808,5.559,5.745,231.498,234.531,228.737
0.405,45.911,5.595,5.785,231.592,234.553,228.770
0.406,46.021,5.628,5.816,231.688,234.556,228.824
0.407,46.143,5.657,5.841,231.785,234.543,228.897
0.408,46.275,5.685,5.860,231.880,234.516,228.985
0.409,46.416,5.712,5.875,231.973,234.478,229.083
0.410,46.561,5.738,5.887,232.061,234.432,229.189
0.411,46.707,5.765,5.898,232.144,234.381,229.298
0.412,46.850,5.793,5.910,232.219,234.327,229.406
0.413,46.985,5.822,5.923,232.285,234.273,229.511
0.414,47.107,5.854,5.939,232.341,234.222,229.607
