"T","Distance","Radius","FreeRadius","X","Y","Z"
0.000,0.000,1.094,1.094,191.776,169.510,149.694
0.001,0.037,1.124,1.124,191.802,169.490,149.678
0.002,0.074,1.154,1.154,191.827,169.469,149.659
0.003,0.111,1.184,1.184,191.850,169.450,149.637
0.004,0.150,1.215,1.215,191.870,169.431,149.610
0.006,0.193,1.246,1.246,191.887,169.414,149.574
0.007,0.242,1.279,1.279,191.899,169.400,149.529
0.008,0.300,1.312,1.312,191.907,169.387,149.473
0.009,0.370,1.347,1.347,191.908,169.377,149.403
0.010,0.456,1.383,1.383,191.902,169.371,149.318
0.011,0.559,1.421,1.421,191.889,169.368,149.216
0.012,0.679,1.460,1.459,191.869,169.368,149.098
0.013,0.810,1.497,1.496,191.844,169.373,148.968
0.014,0.950,1.531,1.530,191.816,169.381,148.832
0.015,1.094,1.561,1.560,191.787,169.392,148.692
0.017,1.236,1.584,1.583,191.759,169.407,148.553
0.018,1.373,1.600,1.600,191.735,169.425,148.419
0.019,1.501,1.607,1.606,191.717,169.446,148.295
0.020,1.615,1.603,1.603,191.706,169.471,148.184
0.021,1.713,1.587,1.587,191.704,169.499,148.090
0.022,1.793,1.560,1.561,191.714,169.531,148.017
0.023,1.863,1.527,1.529,191.738,169.567,147.962
0.024,1.932,1.492,1.494,191.775,169.611,147.923
0.025,2.011,1.458,1.460,191.828,169.662,147.896
0.026,2.106,1.429,1.432,191.898,169.724,147.880
0.028,2.221,1.409,1.411,191.986,169.798,147.871
0.029,2.360,1.401,1.403,192.094,169.885,147.866
0.030,2.524,1.411,1.412,192.223,169.987,147.864
0.031,2.716,1.441,1.440,192.374,170.106,147.861
0.032,2.938,1.491,1.487,192.548,170.243,147.855
0.033,3.185,1.557,1.551,192.741,170.396,147.845
0.034,3.450,1.635,1.627,192.949,170.561,147.832
0.035,3.726,1.722,1.712,193.163,170.734,147.818
0.036,4.005,1.814,1.803,193.379,170.910,147.802
0.038,4.279,1.905,1.895,193.589,171.084,147.787
0.039,4.541,1.994,1.986,193.789,171.254,147.772
0.040,4.783,2.075,2.071,193.971,171.413,147.759
0.041,4.999,2.145,2.148,194.129,171.559,147.748
0.042,5.180,2.202,2.214,194.258,171.686,147.741
0.043,5.324,2.248,2.270,194.354,171.793,147.737
0.044,5.434,2.282,2.317,194.421,171.882,147.737
0.045,5.517,2.308,2.354,194.463,171.953,147.738
0.046,5.578,2.326,2.382,194.483,172.010,147.739
0.047,5.623,2.337,2.403,194.487,172.055,147.741
0.049,5.658,2.342,2.415,194.478,172.089,147.741
0.050,5.690,2.344,2.421,194.460,172.115,147.738
0.051,5.721,2.343,2.420,194.438,172.135,147.733
0.052,5.750,2.340,2.413,194.415,172.151,147.722
0.053,5.779,2.337,2.402,194.396,172.166,147.707
0.054,5.807,2.334,2.389,194.381,172.180,147.687
0.055,5.834,2.331,2.376,194.371,172.195,147.667
0.056,5.861,2.331,2.364,194.366,172.214,147.649
0.057,5.887,2.333,2.355,194.367,172.236,147.636
0.058,5.917,2.339,2.351,194.373,172.265,147.629
0.060,5.955,2.349,2.354,194.386,172.300,147.633
0.061,6.006,2.365,2.365,194.406,172.345,147.649
0.062,6.074,2.386,2.385,194.432,172.399,147.680
0.063,6.164,2.413,2.414,194.465,172.466,147.730
0.064,6.274,2.443,2.449,194.504,172.544,147.797
0.065,6.400,2.476,2.488,194.547,172.632,147.876
0.066,6.536,2.510,2.530,194.592,172.727,147.962
0.067,6.676,2.544,2.572,194.634,172.827,148.050
0.068,6.815,2.578,2.613,194.673,172.930,148.135
0.070,6.947,2.610,2.650,194.705,173.033,148.212
0.071,7.068,2.639,2.683,194.729,173.135,148.274
0.072,7.175,2.664,2.709,194.740,173.232,148.317
0.073,7.268,2.685,2.728,194.737,173.323,148.336
0.074,7.354,2.702,2.741,194.718,173.406,148.326
0.075,7.443,2.715,2.748,194.685,173.481,148.291
0.076,7.541,2.725,2.751,194.642,173.549,148.234
0.077,7.650,2.730,2.749,194.590,173.610,148.161
0.078,7.767,2.731,2.744,194.534,173.667,148.076
0.079,7.887,2.729,2.735,194.477,173.720,147.984
0.081,8.008,2.723,2.724,194.422,173.769,147.888
0.082,8.124,2.714,2.711,194.372,173.816,147.795
0.083,8.230,2.702,2.697,194.331,173.862,147.708
0.084,8.324,2.688,2.682,194.301,173.908,147.632
0.085,8.405,2.674,2.667,194.282,173.954,147.568
0.086,8.480,2.660,2.654,194.273,174.003,147.513
0.087,8.551,2.648,2.643,194.269,174.056,147.465
0.088,8.625,2.639,2.635,194.267,174.116,147.421
0.089,8.704,2.633,2.631,194.266,174.183,147.379
0.091,8.792,2.632,2.631,194.261,174.259,147.336
0.092,8.892,2.637,2.638,194.251,174.346,147.289
0.093,9.006,2.648,2.649,194.231,174.446,147.236
0.094,9.140,2.664,2.666,194.200,174.560,147.174
0.095,9.294,2.684,2.686,194.154,174.688,147.101
0.096,9.465,2.709,2.711,194.097,174.828,147.021
0.097,9.647,2.737,2.739,194.031,174.975,146.936
0.098,9.835,2.768,2.769,193.960,175.124,146.848
0.099,10.021,2.801,2.801,193.886,175.272,146.762
0.100,10.200,2.835,2.835,193.812,175.413,146.680
0.102,10.367,2.870,2.869,193.741,175.545,146.605
0.103,10.515,2.905,2.904,193.677,175.661,146.540
0.104,10.639,2.939,2.939,193.622,175.759,146.488
0.105,10.732,2.972,2.972,193.578,175.833,146.453
0.106,10.796,3.004,3.003,193.547,175.885,146.432
0.107,10.836,3.033,3.032,193.525,175.917,146.425
0.108,10.858,3.059,3.058,193.510,175.933,146.427
0.109,10.871,3.081,3.080,193.500,175.937,146.436
0.110,10.887,3.098,3.098,193.493,175.931,146.448
0.111,10.906,3.111,3.111,193.486,175.919,146.461
0.113,10.926,3.118,3.118,193.477,175.905,146.472
0.114,10.946,3.120,3.121,193.464,175.891,146.478
0.115,10.967,3.119,3.119,193.445,175.882,146.476
0.116,10.997,3.115,3.115,193.418,175.879,146.464
0.117,11.037,3.108,3.108,193.383,175.882,146.443
0.118,11.087,3.099,3.099,193.343,175.891,146.415
0.119,11.144,3.089,3.089,193.299,175.904,146.381
0.120,11.208,3.079,3.079,193.251,175.921,146.343
0.121,11.275,3.069,3.069,193.201,175.941,146.303
0.123,11.345,3.059,3.059,193.150,175.963,146.261
0.124,11.414,3.050,3.050,193.099,175.988,146.220
0.125,11.483,3.041,3.041,193.050,176.013,146.180
0.126,11.547,3.032,3.032,193.003,176.038,146.144
0.127,11.608,3.022,3.022,192.959,176.065,146.111
0.128,11.667,3.010,3.010,192.916,176.093,146.083
0.129,11.724,2.998,2.998,192.875,176.123,146.057
0.130,11.781,2.983,2.983,192.834,176.156,146.035
0.131,11.839,2.965,2.965,192.794,176.194,146.017
0.132,11.899,2.946,2.946,192.754,176.237,146.002
0.134,11.964,2.923,2.923,192.713,176.285,145.991
0.135,12.034,2.900,2.900,192.671,176.341,145.982
0.136,12.111,2.875,2.875,192.626,176.403,145.977
0.137,12.195,2.849,2.849,192.580,176.473,145.975
0.138,12.285,2.823,2.823,192.532,176.549,145.974
0.139,12.379,2.797,2.797,192.484,176.630,145.974
0.140,12.475,2.772,2.772,192.434,176.713,145.973
0.141,12.572,2.748,2.748,192.385,176.796,145.970
0.142,12.668,2.726,2.726,192.337,176.879,145.964
0.143,12.762,2.706,2.706,192.290,176.960,145.953
0.145,12.853,2.687,2.687,192.244,177.036,145.937
0.146,12.938,2.670,2.670,192.201,177.107,145.914
0.147,13.019,2.655,2.655,192.161,177.170,145.883
0.148,13.097,2.641,2.641,192.123,177.227,145.846
0.149,13.174,2.629,2.629,192.086,177.279,145.804
0.150,13.249,2.618,2.618,192.049,177.328,145.760
0.151,13.324,2.608,2.608,192.013,177.375,145.715
0.152,13.398,2.600,2.600,191.975,177.422,145.671
0.153,13.473,2.593,2.593,191.935,177.470,145.630
0.155,13.549,2.585,2.585,191.892,177.521,145.594
0.156,13.627,2.577,2.577,191.846,177.577,145.565
0.157,13.709,2.566,2.566,191.795,177.639,145.545
0.158,13.798,2.553,2.553,191.739,177.707,145.533
0.159,13.892,2.536,2.536,191.679,177.777,145.526
0.160,13.989,2.515,2.515,191.613,177.849,145.519
0.161,14.090,2.488,2.488,191.541,177.919,145.510
0.162,14.192,2.455,2.455,191.465,177.986,145.494
0.163,14.297,2.416,2.416,191.383,178.045,145.467
0.164,14.406,2.373,2.373,191.295,178.096,145.427
0.166,14.522,2.326,2.326,191.203,178.135,145.369
0.167,14.651,2.277,2.277,191.104,178.159,145.290
0.168,14.797,2.228,2.228,191.000,178.169,145.187
0.169,14.960,2.178,2.178,190.893,178.164,145.064
0.170,15.136,2.130,2.130,190.786,178.148,144.926
0.171,15.318,2.085,2.085,190.681,178.122,144.779
0.172,15.503,2.045,2.045,190.581,178.090,144.627
0.173,15.684,2.008,2.008,190.489,178.054,144.476
0.174,15.855,1.976,1.976,190.407,178.016,144.330
0.175,16.011,1.947,1.947,190.338,177.979,144.196
0.177,16.145,1.921,1.921,190.285,177.945,144.077
0.178,16.253,1.898,1.898,190.250,177.917,143.979
0.179,16.334,1.876,1.876,190.232,177.894,143.903
0.180,16.396,1.855,1.855,190.227,177.875,143.845
0.181,16.444,1.835,1.835,190.230,177.856,143.800
0.182,16.484,1.816,1.816,190.237,177.836,143.766
0.183,16.521,1.796,1.796,190.245,177.813,143.739
0.184,16.559,1.775,1.775,190.248,177.784,143.715
0.185,16.605,1.753,1.753,190.242,177.746,143.690
0.187,16.664,1.731,1.731,190.223,177.698,143.660
0.188,16.744,1.707,1.707,190.186,177.637,143.623
0.189,16.849,1.682,1.682,190.130,177.563,143.575
0.190,16.977,1.655,1.655,190.054,177.479,143.517
0.191,17.124,1.627,1.627,189.961,177.388,143.448
0.192,17.286,1.596,1.596,189.854,177.295,143.370
0.193,17.460,1.563,1.563,189.733,177.203,143.283
0.194,17.644,1.528,1.528,189.602,177.117,143.187
0.195,17.835,1.492,1.492,189.461,177.041,143.084
0.196,18.029,1.455,1.455,189.314,176.978,142.973
0.198,18.227,1.417,1.417,189.161,176.933,142.855
0.199,18.427,1.379,1.379,189.006,176.909,142.731
0.200,18.631,1.341,1.341,188.850,176.905,142.601
0.201,18.838,1.304,1.304,188.695,176.915,142.464
0.202,19.049,1.267,1.267,188.542,176.935,142.320
0.203,19.262,1.232,1.232,188.394,176.960,142.168
0.204,19.476,1.200,1.200,188.253,176.986,142.009
0.205,19.691,1.173,1.173,188.121,177.007,141.842
0.206,19.905,1.152,1.152,187.998,177.019,141.666
0.208,20.120,1.138,1.138,187.888,177.016,141.482
0.209,20.337,1.135,1.135,187.792,176.995,141.288
0.210,20.558,1.143,1.143,187.711,176.953,141.087
0.211,20.783,1.163,1.163,187.645,176.893,140.881
0.212,21.007,1.199,1.199,187.593,176.819,140.676
0.213,21.229,1.250,1.250,187.553,176.734,140.475
0.214,21.443,1.315,1.315,187.525,176.641,140.283
0.215,21.647,1.390,1.390,187.508,176.545,140.105
0.216,21.834,1.472,1.472,187.501,176.450,139.943
0.217,22.002,1.557,1.557,187.503,176.358,139.804
0.219,22.144,1.641,1.641,187.514,176.273,139.690
0.220,22.258,1.722,1.722,187.532,176.198,139.606
0.221,22.347,1.794,1.794,187.558,176.135,139.549
0.222,22.418,1.856,1.856,187.588,176.081,139.513
0.223,22.479,1.903,1.903,187.624,176.035,139.496
0.224,22.535,1.936,1.936,187.665,175.998,139.490
0.225,22.588,1.956,1.956,187.708,175.966,139.492
0.226,22.642,1.965,1.965,187.754,175.940,139.496
0.227,22.694,1.965,1.965,187.802,175.918,139.498
0.228,22.747,1.958,1.958,187.851,175.899,139.493
0.230,22.801,1.946,1.946,187.900,175.883,139.476
0.231,22.860,1.931,1.931,187.948,175.868,139.445
0.232,22.926,1.915,1.915,187.995,175.855,139.401
0.233,22.998,1.899,1.899,188.041,175.845,139.347
0.234,23.074,1.885,1.885,188.086,175.837,139.286
0.235,23.154,1.871,1.871,188.129,175.832,139.218
0.236,23.236,1.859,1.859,188.169,175.830,139.148
0.237,23.317,1.848,1.848,188.207,175.832,139.075
0.238,23.397,1.838,1.838,188.242,175.838,139.004
0.240,23.473,1.828,1.828,188.273,175.848,138.935
0.241,23.544,1.818,1.818,188.301,175.863,138.871
0.242,23.611,1.808,1.808,188.325,175.881,138.813
0.243,23.672,1.799,1.799,188.347,175.903,138.759
0.244,23.728,1.789,1.789,188.364,175.926,138.711
0.245,23.780,1.779,1.779,188.379,175.950,138.668
0.246,23.826,1.770,1.770,188.391,175.974,138.630
0.247,23.868,1.761,1.761,188.400,175.997,138.597
0.248,23.903,1.752,1.752,188.406,176.018,138.569
0.249,23.933,1.745,1.745,188.410,176.036,138.546
0.251,23.955,1.739,1.739,188.412,176.050,138.527
0.252,23.972,1.734,1.734,188.411,176.059,138.514
0.253,23.984,1.730,1.730,188.410,176.065,138.504
0.254,23.991,1.728,1.728,188.408,176.068,138.497
0.255,23.996,1.727,1.727,188.407,176.068,138.492
0.256,24.000,1.726,1.726,188.406,176.065,138.489
0.257,24.006,1.726,1.726,188.408,176.061,138.487
0.258,24.014,1.725,1.725,188.412,176.055,138.484
0.259,24.025,1.723,1.723,188.420,176.048,138.480
0.260,24.040,1.720,1.720,188.432,176.040,138.475
0.262,24.060,1.715,1.715,188.449,176.033,138.467
0.263,24.085,1.708,1.708,188.469,176.026,138.455
0.264,24.115,1.698,1.698,188.493,176.021,138.437
0.265,24.151,1.686,1.686,188.519,176.018,138.412
0.266,24.194,1.672,1.672,188.546,176.019,138.379
0.267,24.246,1.657,1.657,188.573,176.024,138.335
0.268,24.308,1.640,1.640,188.600,176.035,138.280
0.269,24.383,1.624,1.624,188.625,176.051,138.211
0.270,24.472,1.607,1.607,188.648,176.075,138.128
0.272,24.578,1.592,1.592,188.668,176.106,138.029
0.273,24.699,1.577,1.577,188.685,176.144,137.915
0.274,24.832,1.563,1.563,188.699,176.186,137.791
0.275,24.971,1.552,1.552,188.713,176.232,137.660
0.276,25.112,1.542,1.542,188.727,176.279,137.527
0.277,25.252,1.534,1.534,188.743,176.325,137.396
0.278,25.386,1.529,1.529,188.761,176.368,137.270
0.279,25.511,1.526,1.526,188.782,176.405,137.154
0.280,25.621,1.527,1.527,188.808,176.436,137.051
0.281,25.715,1.530,1.530,188.840,176.458,136.965
0.283,25.792,1.536,1.536,188.878,176.471,136.899
0.284,25.858,1.546,1.546,188.922,176.476,136.850
0.285,25.921,1.559,1.559,188.972,176.476,136.812
0.286,25.983,1.575,1.575,189.027,176.474,136.784
0.287,26.048,1.592,1.592,189.087,176.473,136.760
0.288,26.116,1.609,1.609,189.152,176.474,136.737
0.289,26.190,1.627,1.627,189.220,176.482,136.711
0.290,26.271,1.645,1.645,189.293,176.497,136.679
0.291,26.362,1.661,1.661,189.369,176.524,136.636
0.292,26.467,1.675,1.675,189.448,176.564,136.580
0.294,26.585,1.686,1.686,189.529,176.616,136.512
0.295,26.711,1.695,1.695,189.610,176.677,136.436
0.296,26.842,1.701,1.701,189.688,176.744,136.357
0.297,26.972,1.705,1.705,189.763,176.815,136.278
0.298,27.096,1.706,1.707,189.833,176.886,136.203
0.299,27.209,1.706,1.707,189.895,176.955,136.138
0.300,27.307,1.705,1.705,189.948,177.018,136.085
0.301,27.385,1.702,1.702,189.991,177.073,136.050
0.302,27.440,1.699,1.699,190.021,177.117,136.036
0.304,27.477,1.694,1.694,190.038,177.149,136.043
0.305,27.508,1.690,1.690,190.045,177.170,136.065
0.306,27.539,1.687,1.687,190.046,177.183,136.093
0.307,27.568,1.686,1.685,190.043,177.190,136.120
0.308,27.587,1.687,1.687,190.039,177.193,136.139
0.309,27.591,1.693,1.693,190.036,177.193,136.142
0.310,27.612,1.704,1.704,190.039,177.194,136.121
0.311,27.665,1.722,1.721,190.050,177.197,136.069
0.312,27.759,1.746,1.746,190.072,177.203,135.978
0.313,27.900,1.779,1.779,190.107,177.216,135.842
0.315,28.082,1.820,1.821,190.154,177.233,135.667
0.316,28.294,1.867,1.868,190.211,177.254,135.463
0.317,28.529,1.919,1.921,190.275,177.275,135.239
0.318,28.774,1.973,1.975,190.343,177.296,135.004
0.319,29.021,2.028,2.030,190.413,177.315,134.768
0.320,29.260,2.081,2.084,190.483,177.329,134.540
0.321,29.480,2.131,2.133,190.550,177.336,134.331
0.322,29.672,2.175,2.176,190.611,177.336,134.148
0.323,29.827,2.212,2.212,190.664,177.326,134.003
0.325,29.945,2.241,2.239,190.707,177.305,133.895
0.326,30.033,2.263,2.259,190.739,177.272,133.819
0.327,30.104,2.281,2.275,190.758,177.229,133.767
0.328,30.169,2.297,2.289,190.763,177.175,133.730
0.329,30.241,2.313,2.304,190.753,177.110,133.702
0.330,30.326,2.331,2.322,190.727,177.034,133.675
0.331,30.429,2.354,2.347,190.683,176.947,133.640
0.332,30.555,2.385,2.380,190.620,176.849,133.591
0.333,30.710,2.424,2.424,190.538,176.741,133.520
0.334,30.895,2.474,2.481,190.435,176.622,133.421
0.336,31.108,2.533,2.549,190.318,176.495,133.295
0.337,31.341,2.599,2.624,190.195,176.365,133.146
0.338,31.587,2.669,2.703,190.073,176.235,132.978
0.339,31.838,2.740,2.784,189.959,176.108,132.793
0.340,32.090,2.811,2.864,189.862,175.989,132.594
0.341,32.336,2.878,2.938,189.788,175.880,132.386
0.342,32.574,2.940,3.005,189.744,175.785,132.172
0.343,32.805,2.994,3.060,189.740,175.708,131.954
0.344,33.033,3.037,3.103,189.780,175.653,131.737
0.345,33.265,3.070,3.132,189.864,175.618,131.523
0.347,33.504,3.094,3.149,189.983,175.599,131.317
0.348,33.746,3.110,3.157,190.127,175.594,131.122
0.349,33.988,3.118,3.155,190.287,175.598,130.942
0.350,34.220,3.119,3.147,190.454,175.606,130.780
0.351,34.436,3.114,3.132,190.618,175.616,130.640
0.352,34.626,3.105,3.114,190.770,175.622,130.525
0.353,34.782,3.091,3.093,190.900,175.622,130.440
0.354,34.895,3.075,3.071,191.000,175.611,130.388
0.355,34.966,3.056,3.049,191.064,175.587,130.370
0.357,35.014,3.038,3.029,191.097,175.553,130.376
0.358,35.062,3.020,3.011,191.106,175.511,130.398
0.359,35.117,3.005,2.997,191.097,175.465,130.427
0.360,35.172,2.995,2.987,191.077,175.419,130.451
0.361,35.223,2.990,2.984,191.053,175.376,130.462
0.362,35.267,2.992,2.989,191.032,175.339,130.449
0.363,35.321,3.003,3.002,191.020,175.312,130.404
0.364,35.410,3.023,3.024,191.025,175.297,130.316
0.365,35.552,3.054,3.056,191.052,175.299,130.177
0.366,35.745,3.093,3.096,191.102,175.316,129.991
0.368,35.980,3.138,3.141,191.170,175.347,129.769
0.369,36.245,3.187,3.191,191.251,175.390,129.521
0.370,36.527,3.239,3.243,191.343,175.443,129.259
0.371,36.815,3.293,3.296,191.440,175.503,128.994
0.372,37.097,3.345,3.347,191.538,175.569,128.738
0.373,37.361,3.395,3.396,191.633,175.638,128.502
0.374,37.596,3.441,3.441,191.721,175.709,128.296
0.375,37.790,3.482,3.480,191.798,175.780,128.132
0.376,37.939,3.518,3.514,191.861,175.849,128.016
0.377,38.052,3.549,3.544,191.909,175.916,127.940
0.379,38.138,3.575,3.569,191.944,175.982,127.897
0.380,38.210,3.598,3.591,191.966,176.048,127.879
0.381,38.277,3.616,3.610,191.975,176.114,127.878
0.382,38.344,3.631,3.627,191.971,176.181,127.887
0.383,38.415,3.643,3.641,191.954,176.249,127.898
0.384,38.490,3.652,3.653,191.926,176.319,127.903
0.385,38.573,3.658,3.664,191.887,176.391,127.895
0.386,38.668,3.662,3.673,191.836,176.465,127.866
0.387,38.777,3.665,3.683,191.777,176.543,127.816
0.389,38.900,3.667,3.691,191.713,176.622,127.747
0.390,39.035,3.669,3.699,191.646,176.703,127.663
0.391,39.179,3.672,3.708,191.580,176.785,127.565
0.392,39.329,3.677,3.717,191.518,176.868,127.456
0.393,39.484,3.684,3.727,191.462,176.952,127.338
0.394,39.640,3.694,3.738,191.417,177.036,127.214
0.395,39.796,3.707,3.750,191.384,177.119,127.086
0.396,39.950,3.724,3.763,191.368,177.201,126.957
0.397,40.102,3.742,3.776,191.368,177.283,126.829
0.398,40.252,3.761,3.790,191.383,177.361,126.702
0.400,40.399,3.781,3.803,191.409,177.437,126.579
0.401,40.541,3.800,3.816,191.445,177.509,126.461
0.402,40.678,3.818,3.828,191.486,177.576,126.350
0.403,40.807,3.834,3.839,191.532,177.637,126.246
0.404,40.925,3.847,3.848,191.578,177.691,126.151
0.405,41.031,3.858,3.855,191.622,177.738,126.067
0.406,41.122,3.865,3.860,191.662,177.776,125.994
0.407,41.197,3.870,3.864,191.695,177.805,125.935
0.408,41.256,3.874,3.868,191.721,177.828,125.887
0.409,41.303,3.877,3.872,191.738,177.848,125.848
0.411,41.341,3.881,3.877,191.745,177.867,125.815
0.412,41.376,3.886,3.883,191.744,177.888,125.787
0.413,41.415,3.892,3.891,191.732,177.915,125.762
0.414,41.464,3.901,3.901,191.709,177.951,125.736
0.415,41.529,3.914,3.914,191.675,177.998,125.709
0.416,41.612,3.929,3.930,191.629,178.060,125.676
0.417,41.718,3.946,3.948,191.571,178.139,125.637
0.418,41.845,3.965,3.967,191.502,178.235,125.592
0.419,41.987,3.985,3.986,191.425,178.342,125.540
0.421,42.137,4.004,4.006,191.345,178.456,125.483
0.422,42.289,4.023,4.024,191.265,178.571,125.424
0.423,42.438,4.041,4.041,191.189,178.683,125.362
0.424,42.576,4.056,4.056,191.120,178.786,125.300
0.425,42.699,4.068,4.068,191.063,178.875,125.239
0.426,42.800,4.077,4.077,191.020,178.944,125.180
0.427,42.876,4.083,4.082,190.995,178.990,125.124
0.428,42.930,4.085,4.085,190.991,179.010,125.073
0.429,42.977,4.084,4.084,191.003,179.009,125.028
0.430,43.021,4.080,4.080,191.024,178.996,124.991
0.432,43.062,4.073,4.072,191.048,178.979,124.962
0.433,43.093,4.062,4.062,191.069,178.966,124.944
0.434,43.107,4.047,4.047,191.082,178.965,124.938
0.435,43.128,4.030,4.030,191.079,178.985,124.944
0.436,43.186,4.009,4.009,191.056,179.034,124.965
0.437,43.292,3.986,3.986,191.005,179.119,125.001
0.438,43.454,3.961,3.961,190.922,179.248,125.055
0.439,43.671,3.935,3.935,190.808,179.418,125.124
0.440,43.928,3.909,3.909,190.672,179.620,125.206
0.442,44.212,3.883,3.883,190.520,179.843,125.297
0.443,44.510,3.858,3.859,190.362,180.076,125.395
0.444,44.810,3.836,3.836,190.205,180.310,125.496
0.445,45.098,3.816,3.816,190.057,180.535,125.598
0.446,45.360,3.799,3.799,189.925,180.739,125.697
0.447,45.585,3.784,3.783,189.818,180.914,125.790
0.448,45.760,3.770,3.770,189.744,181.048,125.874
0.449,45.881,3.756,3.756,189.705,181.137,125.947
0.450,45.958,3.742,3.742,189.692,181.187,126.003
