"T","Distance","Radius","FreeRadius","X","Y","Z"
0.000,0.000,1.338,1.338,214.956,187.510,169.238
0.001,0.046,1.334,1.334,214.942,187.491,169.277
0.003,0.089,1.330,1.330,214.928,187.474,169.314
0.004,0.127,1.325,1.325,214.917,187.458,169.347
0.006,0.158,1.319,1.319,214.908,187.446,169.374
0.007,0.178,1.312,1.312,214.903,187.439,169.392
0.009,0.185,1.303,1.303,214.902,187.438,169.399
0.010,0.195,1.291,1.291,214.907,187.445,169.394
0.011,0.222,1.278,1.278,214.918,187.459,169.375
0.013,0.269,1.265,1.265,214.936,187.483,169.338
0.014,0.340,1.256,1.256,214.962,187.518,169.282
0.016,0.436,1.253,1.253,214.997,187.565,169.206
0.017,0.561,1.260,1.260,215.042,187.625,169.107
0.019,0.710,1.280,1.280,215.095,187.697,168.986
0.020,0.879,1.315,1.315,215.154,187.776,168.849
0.022,1.063,1.368,1.368,215.218,187.862,168.699
0.023,1.257,1.435,1.435,215.283,187.950,168.539
0.024,1.456,1.511,1.511,215.348,188.039,168.374
0.026,1.655,1.590,1.590,215.411,188.125,168.206
0.027,1.848,1.666,1.666,215.469,188.205,168.040
0.029,2.031,1.736,1.736,215.521,188.277,167.880
0.030,2.200,1.792,1.792,215.564,188.339,167.729
0.032,2.349,1.832,1.832,215.595,188.386,167.591
0.033,2.476,1.856,1.856,215.614,188.417,167.469
0.034,2.581,1.870,1.870,215.620,188.431,167.365
0.036,2.670,1.876,1.876,215.614,188.430,167.277
0.037,2.748,1.879,1.879,215.598,188.416,167.202
0.039,2.819,1.884,1.884,215.574,188.391,167.139
0.040,2.890,1.893,1.893,215.544,188.356,167.087
0.042,2.960,1.911,1.911,215.509,188.313,167.042
0.043,3.033,1.935,1.935,215.471,188.264,167.005
0.045,3.107,1.963,1.963,215.432,188.210,166.972
0.046,3.182,1.992,1.992,215.393,188.154,166.942
0.047,3.255,2.020,2.020,215.355,188.098,166.913
0.049,3.326,2.042,2.042,215.322,188.043,166.883
0.050,3.393,2.057,2.057,215.293,187.991,166.852
0.052,3.452,2.061,2.061,215.269,187.948,166.820
0.053,3.502,2.055,2.055,215.248,187.915,166.789
0.055,3.541,2.041,2.041,215.230,187.898,166.759
0.056,3.572,2.021,2.021,215.216,187.900,166.731
0.057,3.609,1.995,1.995,215.204,187.926,166.707
0.059,3.666,1.967,1.967,215.194,187.979,166.687
0.060,3.751,1.936,1.936,215.186,188.062,166.673
0.062,3.871,1.906,1.906,215.179,188.181,166.665
0.063,4.028,1.881,1.881,215.173,188.339,166.665
0.065,4.229,1.867,1.867,215.167,188.539,166.673
0.066,4.474,1.868,1.868,215.161,188.784,166.690
0.068,4.757,1.891,1.891,215.154,189.065,166.715
0.069,5.068,1.941,1.941,215.145,189.375,166.745
0.070,5.399,2.024,2.024,215.133,189.704,166.779
0.072,5.742,2.144,2.144,215.119,190.045,166.815
0.073,6.088,2.293,2.293,215.100,190.388,166.852
0.075,6.427,2.458,2.458,215.076,190.725,166.888
0.076,6.753,2.626,2.626,215.046,191.047,166.920
0.078,7.055,2.783,2.783,215.010,191.346,166.947
0.079,7.327,2.918,2.918,214.967,191.613,166.968
0.080,7.559,3.016,3.016,214.915,191.840,166.981
0.082,7.748,3.067,3.067,214.855,192.019,166.983
0.083,7.899,3.073,3.073,214.787,192.153,166.977
0.085,8.019,3.045,3.045,214.713,192.247,166.963
0.086,8.119,2.995,2.995,214.635,192.306,166.942
0.088,8.209,2.934,2.934,214.554,192.337,166.917
0.089,8.296,2.871,2.871,214.472,192.344,166.889
0.091,8.383,2.819,2.819,214.391,192.334,166.859
0.092,8.470,2.787,2.787,214.313,192.311,166.828
0.093,8.555,2.775,2.775,214.239,192.282,166.799
0.095,8.634,2.780,2.780,214.171,192.251,166.772
0.096,8.705,2.796,2.796,214.110,192.225,166.749
0.098,8.762,2.819,2.819,214.058,192.208,166.731
0.099,8.807,2.844,2.844,214.015,192.202,166.719
0.101,8.842,2.867,2.867,213.981,192.204,166.711
0.102,8.872,2.883,2.883,213.953,192.214,166.707
0.103,8.898,2.891,2.891,213.931,192.228,166.707
0.105,8.922,2.895,2.895,213.915,192.246,166.709
0.106,8.946,2.894,2.894,213.902,192.265,166.712
0.108,8.967,2.890,2.890,213.891,192.284,166.716
0.109,8.986,2.886,2.886,213.883,192.300,166.721
0.111,9.001,2.883,2.883,213.875,192.312,166.725
0.112,9.012,2.881,2.881,213.867,192.319,166.727
0.114,9.022,2.882,2.882,213.857,192.317,166.727
0.115,9.037,2.885,2.885,213.846,192.308,166.725
0.116,9.057,2.888,2.888,213.832,192.293,166.720
0.118,9.083,2.891,2.891,213.816,192.275,166.713
0.119,9.111,2.892,2.892,213.797,192.256,166.703
0.121,9.141,2.891,2.891,213.776,192.238,166.692
0.122,9.172,2.888,2.888,213.752,192.224,166.679
0.124,9.204,2.881,2.881,213.725,192.216,166.664
0.125,9.238,2.871,2.871,213.695,192.217,166.647
0.126,9.277,2.859,2.859,213.661,192.228,166.629
0.128,9.325,2.845,2.845,213.625,192.252,166.610
0.129,9.384,2.829,2.829,213.585,192.291,166.590
0.131,9.458,2.812,2.812,213.542,192.346,166.568
0.132,9.544,2.793,2.793,213.496,192.415,166.545
0.134,9.640,2.774,2.774,213.448,192.495,166.522
0.135,9.743,2.753,2.753,213.399,192.582,166.497
0.136,9.852,2.732,2.732,213.350,192.676,166.471
0.138,9.963,2.710,2.710,213.301,192.771,166.444
0.139,10.073,2.687,2.687,213.253,192.867,166.416
0.141,10.180,2.664,2.664,213.208,192.959,166.387
0.142,10.281,2.640,2.640,213.165,193.045,166.357
0.144,10.373,2.615,2.615,213.125,193.123,166.326
0.145,10.454,2.592,2.592,213.090,193.188,166.294
0.147,10.523,2.570,2.570,213.059,193.240,166.260
0.148,10.582,2.551,2.551,213.033,193.280,166.227
0.149,10.632,2.536,2.536,213.010,193.310,166.194
0.151,10.676,2.525,2.525,212.989,193.332,166.161
0.152,10.715,2.520,2.520,212.969,193.347,166.131
0.154,10.752,2.519,2.519,212.949,193.360,166.103
0.155,10.785,2.521,2.521,212.929,193.371,166.078
0.157,10.818,2.523,2.523,212.908,193.383,166.057
0.158,10.851,2.523,2.523,212.884,193.398,166.041
0.159,10.887,2.518,2.518,212.856,193.419,166.030
0.161,10.929,2.507,2.507,212.824,193.447,166.025
0.162,10.982,2.487,2.487,212.787,193.484,166.026
0.164,11.045,2.458,2.458,212.745,193.531,166.032
0.165,11.117,2.423,2.423,212.697,193.584,166.040
0.167,11.195,2.383,2.383,212.645,193.641,166.047
0.168,11.277,2.342,2.342,212.588,193.700,166.049
0.170,11.363,2.301,2.301,212.527,193.760,166.045
0.171,11.451,2.262,2.262,212.461,193.817,166.030
0.172,11.543,2.229,2.229,212.392,193.871,166.003
0.174,11.640,2.200,2.200,212.319,193.917,165.960
0.175,11.745,2.177,2.177,212.243,193.955,165.898
0.177,11.863,2.157,2.157,212.163,193.982,165.814
0.178,12.000,2.140,2.140,212.081,193.997,165.706
0.180,12.156,2.124,2.124,211.996,193.998,165.575
0.181,12.330,2.110,2.110,211.908,193.987,165.425
0.182,12.518,2.095,2.095,211.817,193.966,165.262
0.184,12.715,2.079,2.079,211.723,193.937,165.091
0.185,12.918,2.063,2.063,211.626,193.900,164.917
0.187,13.121,2.046,2.046,211.526,193.858,164.745
0.188,13.322,2.028,2.028,211.422,193.812,164.580
0.190,13.514,2.010,2.010,211.315,193.763,164.428
0.191,13.696,1.991,1.991,211.204,193.714,164.293
0.193,13.864,1.972,1.972,211.090,193.665,164.180
0.194,14.016,1.952,1.952,210.973,193.618,164.094
0.195,14.157,1.931,1.931,210.851,193.575,164.038
0.197,14.294,1.909,1.909,210.724,193.536,164.005
0.198,14.430,1.886,1.886,210.593,193.503,163.989
0.200,14.571,1.862,1.862,210.455,193.477,163.985
0.201,14.717,1.835,1.835,210.310,193.459,163.986
0.203,14.869,1.807,1.807,210.158,193.450,163.986
0.204,15.030,1.779,1.779,209.997,193.452,163.981
0.205,15.201,1.755,1.755,209.827,193.465,163.963
0.207,15.386,1.741,1.741,209.648,193.490,163.926
0.208,15.590,1.741,1.741,209.458,193.529,163.865
0.210,15.817,1.759,1.759,209.256,193.583,163.773
0.211,16.073,1.802,1.802,209.044,193.652,163.648
0.213,16.355,1.872,1.872,208.824,193.735,163.493
0.214,16.655,1.971,1.971,208.600,193.827,163.316
0.216,16.969,2.091,2.091,208.376,193.927,163.121
0.217,17.287,2.224,2.224,208.156,194.032,162.915
0.218,17.604,2.363,2.363,207.944,194.139,162.705
0.220,17.912,2.499,2.499,207.744,194.246,162.497
0.221,18.204,2.626,2.626,207.560,194.349,162.297
0.223,18.471,2.734,2.734,207.395,194.447,162.110
0.224,18.706,2.822,2.822,207.254,194.536,161.944
0.226,18.902,2.891,2.891,207.140,194.614,161.805
0.227,19.052,2.946,2.946,207.057,194.678,161.697
0.228,19.161,2.989,2.989,207.003,194.729,161.619
0.230,19.236,3.023,3.023,206.974,194.771,161.563
0.231,19.287,3.054,3.054,206.965,194.804,161.526
0.233,19.325,3.082,3.082,206.974,194.831,161.500
0.234,19.362,3.113,3.113,206.996,194.854,161.481
0.236,19.404,3.146,3.146,207.026,194.876,161.462
0.237,19.453,3.183,3.183,207.062,194.899,161.439
0.239,19.509,3.225,3.225,207.100,194.924,161.405
0.240,19.577,3.275,3.275,207.134,194.955,161.355
0.241,19.664,3.333,3.333,207.163,194.993,161.283
0.243,19.775,3.400,3.400,207.181,195.040,161.184
0.244,19.913,3.476,3.476,207.188,195.097,161.058
0.246,20.074,3.561,3.561,207.185,195.161,160.910
0.247,20.253,3.650,3.650,207.175,195.230,160.746
0.249,20.444,3.743,3.743,207.159,195.303,160.570
0.250,20.642,3.837,3.837,207.139,195.378,160.388
0.251,20.842,3.928,3.928,207.117,195.451,160.203
0.253,21.038,4.017,4.017,207.093,195.523,160.022
0.254,21.225,4.099,4.099,207.070,195.590,159.849
0.256,21.397,4.176,4.176,207.050,195.651,159.690
0.257,21.549,4.246,4.246,207.034,195.704,159.548
0.259,21.675,4.310,4.310,207.023,195.747,159.430
0.260,21.773,4.366,4.366,207.019,195.779,159.337
0.261,21.848,4.415,4.415,207.022,195.803,159.267
0.263,21.902,4.455,4.455,207.030,195.820,159.216
0.264,21.941,4.488,4.488,207.043,195.832,159.182
0.266,21.969,4.513,4.513,207.061,195.841,159.162
0.267,21.994,4.531,4.531,207.084,195.849,159.154
0.269,22.022,4.543,4.543,207.111,195.858,159.155
0.270,22.055,4.548,4.548,207.141,195.869,159.162
0.272,22.094,4.549,4.549,207.174,195.885,159.172
0.273,22.137,4.546,4.546,207.210,195.908,159.183
0.274,22.187,4.538,4.538,207.248,195.939,159.192
0.276,22.244,4.528,4.528,207.288,195.979,159.197
0.277,22.306,4.516,4.516,207.328,196.027,159.197
0.279,22.373,4.503,4.503,207.367,196.080,159.191
0.280,22.442,4.490,4.490,207.404,196.138,159.180
0.282,22.512,4.478,4.478,207.438,196.197,159.164
0.283,22.582,4.468,4.468,207.468,196.256,159.141
0.284,22.651,4.461,4.461,207.492,196.313,159.112
0.286,22.717,4.457,4.457,207.509,196.366,159.076
0.287,22.782,4.457,4.457,207.518,196.414,159.033
0.289,22.846,4.459,4.459,207.517,196.453,158.982
0.290,22.913,4.464,4.464,207.506,196.483,158.923
0.292,22.985,4.473,4.473,207.484,196.502,158.857
0.293,23.066,4.486,4.486,207.451,196.511,158.783
0.295,23.156,4.501,4.501,207.410,196.513,158.704
0.296,23.253,4.517,4.517,207.363,196.510,158.619
0.297,23.356,4.532,4.532,207.311,196.503,158.531
0.299,23.463,4.544,4.544,207.255,196.496,158.439
0.300,23.572,4.550,4.550,207.198,196.491,158.347
0.302,23.681,4.548,4.548,207.142,196.490,158.253
0.303,23.789,4.536,4.536,207.087,196.495,158.160
0.305,23.894,4.513,4.513,207.037,196.508,158.069
0.306,23.996,4.483,4.483,206.992,196.533,157.981
0.307,24.096,4.450,4.450,206.955,196.570,157.896
0.309,24.195,4.417,4.417,206.926,196.621,157.816
0.310,24.297,4.389,4.389,206.904,196.685,157.740
0.312,24.403,4.371,4.371,206.891,196.763,157.669
0.313,24.516,4.367,4.367,206.886,196.855,157.604
0.315,24.638,4.378,4.378,206.889,196.960,157.543
0.316,24.769,4.404,4.404,206.900,197.079,157.488
0.318,24.912,4.440,4.440,206.919,197.212,157.439
0.319,25.067,4.484,4.484,206.946,197.358,157.396
0.320,25.235,4.532,4.532,206.981,197.518,157.359
0.322,25.416,4.582,4.582,207.025,197.692,157.328
0.323,25.612,4.629,4.629,207.077,197.879,157.305
0.325,25.820,4.671,4.671,207.136,198.077,157.287
0.326,26.036,4.710,4.710,207.200,198.284,157.275
0.328,26.258,4.745,4.745,207.269,198.495,157.268
0.329,26.481,4.778,4.778,207.340,198.706,157.265
0.330,26.702,4.810,4.810,207.412,198.914,157.265
0.332,26.915,4.842,4.842,207.483,199.115,157.267
0.333,27.117,4.875,4.875,207.550,199.306,157.271
0.335,27.303,4.910,4.910,207.614,199.481,157.275
0.336,27.471,4.946,4.946,207.671,199.639,157.279
0.338,27.615,4.981,4.981,207.720,199.774,157.281
0.339,27.731,5.014,5.014,207.760,199.883,157.282
0.341,27.818,5.044,5.044,207.789,199.965,157.281
0.342,27.880,5.069,5.069,207.810,200.023,157.278
0.343,27.921,5.088,5.088,207.825,200.061,157.276
0.345,27.944,5.101,5.101,207.834,200.083,157.276
0.346,27.955,5.108,5.108,207.840,200.092,157.279
0.348,27.964,5.111,5.111,207.846,200.091,157.286
0.349,27.980,5.111,5.111,207.851,200.086,157.299
0.351,28.002,5.111,5.111,207.859,200.078,157.319
0.352,28.034,5.111,5.111,207.871,200.073,157.348
0.353,28.076,5.114,5.114,207.890,200.074,157.386
0.355,28.133,5.120,5.120,207.916,200.085,157.435
0.356,28.207,5.130,5.130,207.951,200.107,157.496
0.358,28.296,5.142,5.142,207.994,200.141,157.567
0.359,28.397,5.156,5.156,208.044,200.183,157.644
0.361,28.507,5.171,5.171,208.098,200.230,157.726
0.362,28.621,5.185,5.185,208.157,200.281,157.811
0.364,28.737,5.197,5.197,208.217,200.333,157.894
0.365,28.850,5.208,5.208,208.279,200.384,157.974
0.366,28.956,5.216,5.216,208.339,200.431,158.048
0.368,29.053,5.222,5.222,208.398,200.471,158.114
0.369,29.136,5.225,5.225,208.452,200.503,158.169
0.371,29.203,5.225,5.225,208.501,200.524,158.210
0.372,29.254,5.222,5.222,208.544,200.531,158.235
0.374,29.293,5.215,5.215,208.582,200.529,158.245
0.375,29.330,5.205,5.205,208.617,200.521,158.243
0.376,29.368,5.191,5.191,208.653,200.511,158.231
0.378,29.411,5.172,5.172,208.691,200.506,158.212
0.379,29.461,5.149,5.149,208.735,200.509,158.188
0.381,29.522,5.119,5.119,208.786,200.526,158.161
0.382,29.597,5.084,5.084,208.848,200.560,158.134
0.384,29.694,5.042,5.042,208.922,200.617,158.109
0.385,29.819,4.994,4.994,209.012,200.702,158.089
0.386,29.978,4.941,4.941,209.120,200.818,158.077
0.388,30.178,4.886,4.886,209.248,200.971,158.074
0.389,30.416,4.831,4.831,209.395,201.158,158.081
0.391,30.686,4.781,4.781,209.557,201.373,158.096
0.392,30.978,4.736,4.736,209.729,201.609,158.119
0.394,31.286,4.702,4.702,209.907,201.859,158.148
0.395,31.601,4.678,4.678,210.086,202.116,158.182
0.397,31.915,4.665,4.665,210.262,202.373,158.220
0.398,32.219,4.659,4.659,210.430,202.622,158.260
0.399,32.505,4.658,4.658,210.587,202.859,158.301
0.401,32.765,4.659,4.659,210.727,203.074,158.341
0.402,32.991,4.660,4.659,210.846,203.262,158.380
0.404,33.174,4.656,4.656,210.941,203.415,158.416
0.405,33.313,4.647,4.647,211.009,203.531,158.448
0.407,33.411,4.631,4.632,211.055,203.613,158.473
0.408,33.474,4.612,4.612,211.083,203.667,158.492
0.409,33.507,4.591,4.591,211.098,203.695,158.501
0.411,33.516,4.569,4.569,211.104,203.702,158.499
0.412,33.533,4.548,4.548,211.104,203.692,158.484
0.414,33.570,4.530,4.530,211.104,203.669,158.455
0.415,33.625,4.516,4.515,211.107,203.637,158.410
0.417,33.698,4.506,4.506,211.118,203.601,158.348
0.418,33.791,4.500,4.500,211.141,203.564,158.266
0.420,33.905,4.498,4.498,211.181,203.531,158.164
0.421,34.045,4.499,4.499,211.240,203.505,158.040
0.422,34.207,4.503,4.502,211.315,203.486,157.898
0.424,34.388,4.508,4.508,211.404,203.472,157.741
0.425,34.583,4.515,4.516,211.503,203.464,157.572
0.427,34.788,4.524,4.525,211.609,203.461,157.397
0.428,34.999,4.533,4.534,211.719,203.463,157.217
0.430,35.211,4.542,4.544,211.829,203.468,157.037
0.431,35.419,4.551,4.553,211.937,203.478,156.859
0.432,35.618,4.560,4.561,212.040,203.490,156.689
0.434,35.804,4.567,4.568,212.134,203.504,156.528
0.435,35.973,4.573,4.572,212.216,203.520,156.382
0.437,36.120,4.578,4.574,212.283,203.538,156.252
0.438,36.247,4.581,4.575,212.337,203.556,156.139
0.440,36.355,4.584,4.577,212.380,203.576,156.042
0.441,36.446,4.587,4.579,212.413,203.597,155.959
0.443,36.523,4.589,4.583,212.440,203.619,155.891
0.444,36.588,4.592,4.590,212.462,203.642,155.835
0.445,36.642,4.595,4.600,212.482,203.665,155.790
0.447,36.688,4.599,4.614,212.501,203.690,155.757
0.448,36.729,4.601,4.629,212.523,203.715,155.733
0.450,36.768,4.602,4.645,212.549,203.741,155.717
0.451,36.810,4.601,4.660,212.581,203.767,155.710
0.453,36.859,4.596,4.673,212.621,203.794,155.708
0.454,36.915,4.587,4.681,212.670,203.820,155.712
0.455,36.975,4.573,4.685,212.725,203.845,155.716
0.457,37.038,4.553,4.684,212.785,203.867,155.720
0.458,37.103,4.530,4.676,212.847,203.884,155.720
0.460,37.168,4.504,4.661,212.910,203.896,155.714
0.461,37.232,4.475,4.640,212.972,203.900,155.698
0.463,37.298,4.444,4.612,213.032,203.897,155.670
0.464,37.369,4.413,4.576,213.087,203.884,155.628
0.466,37.450,4.381,4.532,213.136,203.860,155.568
0.467,37.547,4.350,4.482,213.177,203.824,155.487
0.468,37.666,4.319,4.426,213.208,203.774,155.384
0.470,37.808,4.286,4.367,213.229,203.711,155.258
0.471,37.970,4.253,4.307,213.242,203.638,155.114
0.473,38.149,4.219,4.247,213.249,203.556,154.956
0.474,38.339,4.183,4.190,213.251,203.467,154.787
0.476,38.537,4.145,4.137,213.252,203.374,154.612
0.477,38.738,4.105,4.090,213.252,203.280,154.435
0.478,38.937,4.065,4.047,213.254,203.185,154.260
0.480,39.129,4.024,4.007,213.259,203.094,154.091
0.481,39.310,3.985,3.972,213.270,203.007,153.933
0.483,39.475,3.947,3.940,213.288,202.928,153.789
0.484,39.622,3.913,3.911,213.316,202.857,153.663
0.486,39.748,3.882,3.884,213.354,202.798,153.558
0.487,39.860,3.855,3.859,213.401,202.749,153.470
0.489,39.961,3.833,3.837,213.456,202.709,153.394
0.490,40.057,3.814,3.818,213.516,202.678,153.327
0.491,40.149,3.798,3.802,213.580,202.655,153.264
0.493,40.242,3.787,3.789,213.647,202.639,153.202
0.494,40.337,3.778,3.779,213.716,202.629,153.137
0.496,40.437,3.773,3.773,213.783,202.625,153.063
0.497,40.545,3.770,3.769,213.849,202.626,152.978
0.499,40.663,3.767,3.765,213.911,202.631,152.877
0.500,40.797,3.761,3.760,213.967,202.639,152.756
0.501,40.949,3.751,3.750,214.017,202.650,152.612
0.503,41.118,3.735,3.734,214.061,202.663,152.450
0.504,41.298,3.710,3.710,214.098,202.679,152.274
0.506,41.486,3.674,3.674,214.131,202.697,152.090
0.507,41.676,3.629,3.629,214.158,202.717,151.903
0.509,41.864,3.576,3.577,214.181,202.739,151.718
0.510,42.045,3.522,3.522,214.200,202.763,151.540
0.511,42.213,3.467,3.468,214.215,202.789,151.375
0.513,42.364,3.418,3.418,214.228,202.817,151.227
0.514,42.492,3.376,3.377,214.238,202.846,151.102
0.516,42.594,3.347,3.347,214.246,202.877,151.006
0.517,42.666,3.329,3.329,214.252,202.910,150.942
0.519,42.713,3.321,3.321,214.257,202.941,150.907
0.520,42.743,3.318,3.318,214.259,202.968,150.894
0.522,42.763,3.319,3.319,214.259,202.988,150.897
0.523,42.778,3.318,3.318,214.256,202.996,150.909
0.524,42.793,3.315,3.315,214.249,202.991,150.922
0.526,42.820,3.304,3.304,214.238,202.968,150.929
0.527,42.867,3.286,3.286,214.223,202.924,150.925
0.529,42.941,3.262,3.262,214.203,202.856,150.901
0.530,43.052,3.233,3.233,214.177,202.760,150.852
0.532,43.205,3.203,3.203,214.146,202.635,150.770
0.533,43.409,3.173,3.173,214.109,202.475,150.648
0.534,43.663,3.145,3.145,214.067,202.284,150.487
0.536,43.956,3.120,3.120,214.025,202.070,150.291
0.537,44.279,3.100,3.100,213.986,201.839,150.068
0.539,44.624,3.082,3.082,213.954,201.599,149.823
0.540,44.981,3.063,3.063,213.932,201.358,149.561
0.542,45.340,3.041,3.041,213.924,201.123,149.288
0.543,45.695,3.014,3.014,213.935,200.902,149.011
0.545,46.038,2.981,2.981,213.967,200.702,148.735
0.546,46.362,2.937,2.937,214.024,200.531,148.465
0.547,46.665,2.885,2.885,214.111,200.395,148.208
0.549,46.947,2.828,2.828,214.230,200.304,147.970
0.550,47.216,2.772,2.772,214.383,200.258,147.753
0.552,47.483,2.721,2.721,214.564,200.253,147.558
0.553,47.754,2.680,2.680,214.769,200.281,147.383
0.555,48.032,2.655,2.655,214.993,200.337,147.227
0.556,48.316,2.649,2.649,215.229,200.413,147.089
0.557,48.603,2.664,2.664,215.474,200.504,146.969
0.559,48.890,2.695,2.695,215.722,200.603,146.866
0.560,49.170,2.736,2.736,215.969,200.703,146.778
0.562,49.437,2.781,2.781,216.208,200.798,146.705
0.563,49.686,2.825,2.825,216.435,200.881,146.645
0.565,49.911,2.862,2.862,216.645,200.946,146.598
0.566,50.109,2.886,2.886,216.835,200.989,146.563
0.568,50.283,2.894,2.894,217.006,201.010,146.536
0.569,50.440,2.891,2.891,217.161,201.011,146.517
0.570,50.584,2.878,2.878,217.303,200.994,146.501
0.572,50.721,2.859,2.859,217.435,200.960,146.486
0.573,50.856,2.837,2.837,217.560,200.913,146.470
0.575,50.992,2.815,2.815,217.681,200.853,146.450
0.576,51.133,2.797,2.797,217.800,200.782,146.423
0.578,51.281,2.785,2.785,217.920,200.703,146.388
0.579,51.440,2.779,2.779,218.045,200.617,146.340
0.580,51.611,2.780,2.780,218.177,200.526,146.278
0.582,51.798,2.788,2.788,218.317,200.432,146.200
0.583,51.997,2.803,2.803,218.466,200.337,146.108
0.585,52.204,2.827,2.827,218.619,200.242,146.006
0.586,52.416,2.859,2.859,218.774,200.148,145.896
