"T","Distance","Radius","FreeRadius","X","Y","Z"
0.000,0.000,1.338,1.338,214.956,187.510,169.238
0.002,0.043,1.327,1.327,214.944,187.494,169.276
0.003,0.084,1.317,1.317,214.933,187.478,169.312
0.005,0.121,1.308,1.308,214.923,187.465,169.345
0.007,0.150,1.299,1.299,214.916,187.454,169.371
0.008,0.171,1.291,1.291,214.911,187.448,169.390
0.010,0.180,1.285,1.285,214.910,187.447,169.400
0.011,0.186,1.280,1.280,214.914,187.451,169.398
0.013,0.207,1.277,1.277,214.922,187.463,169.382
0.015,0.247,1.277,1.277,214.937,187.482,169.351
0.016,0.306,1.281,1.281,214.957,187.511,169.303
0.018,0.389,1.288,1.288,214.986,187.549,169.236
0.020,0.496,1.299,1.299,215.022,187.599,169.148
0.021,0.628,1.316,1.316,215.066,187.659,169.039
0.023,0.780,1.338,1.338,215.116,187.728,168.913
0.024,0.949,1.367,1.367,215.171,187.803,168.773
0.026,1.129,1.402,1.402,215.229,187.883,168.622
0.028,1.317,1.446,1.446,215.289,187.966,168.464
0.029,1.508,1.497,1.497,215.349,188.049,168.302
0.031,1.699,1.558,1.558,215.408,188.129,168.140
0.033,1.884,1.625,1.625,215.463,188.206,167.981
0.034,2.059,1.695,1.695,215.515,188.277,167.829
0.036,2.221,1.763,1.763,215.561,188.340,167.687
0.037,2.366,1.822,1.822,215.599,188.393,167.558
0.039,2.488,1.869,1.869,215.628,188.433,167.446
0.041,2.590,1.897,1.897,215.648,188.461,167.350
0.042,2.674,1.905,1.905,215.659,188.476,167.268
0.044,2.743,1.897,1.897,215.660,188.478,167.199
0.046,2.803,1.881,1.881,215.651,188.468,167.141
0.047,2.860,1.863,1.863,215.633,188.445,167.092
0.049,2.922,1.849,1.849,215.605,188.409,167.050
0.050,2.993,1.845,1.845,215.568,188.361,167.013
0.052,3.077,1.856,1.856,215.520,188.300,166.981
0.054,3.176,1.881,1.881,215.462,188.226,166.950
0.055,3.290,1.913,1.913,215.395,188.140,166.919
0.057,3.420,1.950,1.950,215.317,188.041,166.886
0.059,3.565,1.985,1.985,215.229,187.930,166.851
0.060,3.723,2.015,2.015,215.134,187.810,166.814
0.062,3.890,2.034,2.034,215.034,187.682,166.775
0.063,4.062,2.043,2.043,214.931,187.551,166.736
0.065,4.235,2.044,2.044,214.826,187.417,166.698
0.067,4.407,2.038,2.038,214.723,187.285,166.661
0.068,4.574,2.027,2.027,214.623,187.156,166.626
0.070,4.732,2.013,2.013,214.529,187.033,166.594
0.072,4.878,1.997,1.997,214.443,186.919,166.566
0.073,5.008,1.982,1.982,214.367,186.816,166.543
0.075,5.119,1.967,1.967,214.303,186.727,166.526
0.076,5.207,1.956,1.956,214.254,186.654,166.515
0.078,5.274,1.947,1.947,214.219,186.598,166.511
0.080,5.322,1.943,1.943,214.195,186.556,166.513
0.081,5.355,1.945,1.945,214.181,186.527,166.520
0.083,5.378,1.952,1.952,214.175,186.508,166.531
0.085,5.397,1.963,1.963,214.173,186.497,166.547
0.086,5.417,1.974,1.974,214.174,186.493,166.567
0.088,5.439,1.985,1.985,214.175,186.493,166.589
0.089,5.464,1.992,1.992,214.174,186.496,166.613
0.091,5.490,1.994,1.994,214.169,186.500,166.639
0.093,5.520,1.988,1.988,214.157,186.502,166.666
0.094,5.554,1.976,1.976,214.136,186.500,166.693
0.096,5.596,1.960,1.960,214.105,186.493,166.720
0.098,5.646,1.940,1.940,214.064,186.482,166.747
0.099,5.703,1.918,1.918,214.015,186.466,166.773
0.101,5.766,1.895,1.895,213.961,186.447,166.798
0.102,5.833,1.874,1.874,213.903,186.424,166.823
0.104,5.903,1.853,1.853,213.843,186.399,166.846
0.106,5.973,1.834,1.834,213.782,186.373,166.868
0.107,6.041,1.816,1.816,213.723,186.345,166.889
0.109,6.107,1.799,1.799,213.667,186.316,166.908
0.111,6.168,1.784,1.784,213.616,186.287,166.926
0.112,6.222,1.770,1.770,213.572,186.259,166.942
0.114,6.268,1.757,1.757,213.537,186.232,166.956
0.115,6.307,1.744,1.744,213.511,186.207,166.968
0.117,6.341,1.730,1.730,213.492,186.180,166.978
0.119,6.374,1.715,1.715,213.477,186.152,166.987
0.120,6.408,1.698,1.698,213.465,186.122,166.996
0.122,6.447,1.677,1.677,213.453,186.086,167.004
0.124,6.491,1.651,1.651,213.439,186.045,167.012
0.125,6.543,1.621,1.621,213.420,185.997,167.020
0.127,6.606,1.583,1.583,213.395,185.940,167.030
0.128,6.681,1.537,1.537,213.361,185.874,167.040
0.130,6.772,1.481,1.481,213.316,185.796,167.052
0.132,6.880,1.415,1.415,213.257,185.706,167.065
0.133,7.009,1.339,1.339,213.184,185.602,167.081
0.135,7.155,1.260,1.260,213.095,185.487,167.099
0.137,7.316,1.184,1.184,212.993,185.363,167.117
0.138,7.488,1.120,1.120,212.880,185.235,167.135
0.140,7.667,1.073,1.073,212.758,185.105,167.152
0.141,7.850,1.051,1.051,212.627,184.978,167.168
0.143,8.034,1.059,1.059,212.489,184.857,167.180
0.145,8.216,1.089,1.089,212.347,184.744,167.189
0.146,8.392,1.131,1.131,212.202,184.644,167.194
0.148,8.561,1.178,1.178,212.056,184.560,167.193
0.150,8.721,1.220,1.220,211.910,184.495,167.185
0.151,8.872,1.247,1.247,211.766,184.453,167.171
0.153,9.015,1.252,1.252,211.625,184.436,167.149
0.154,9.156,1.238,1.238,211.488,184.441,167.120
0.156,9.295,1.213,1.213,211.355,184.464,167.086
0.158,9.434,1.183,1.183,211.227,184.504,167.048
0.159,9.574,1.157,1.157,211.104,184.556,167.007
0.161,9.713,1.143,1.143,210.986,184.618,166.964
0.163,9.851,1.147,1.147,210.875,184.686,166.920
0.164,9.986,1.169,1.169,210.770,184.757,166.876
0.166,10.114,1.203,1.203,210.672,184.829,166.833
0.167,10.235,1.244,1.244,210.581,184.898,166.794
0.169,10.346,1.285,1.285,210.497,184.960,166.758
0.171,10.443,1.321,1.321,210.422,185.014,166.727
0.172,10.528,1.347,1.347,210.354,185.058,166.702
0.174,10.602,1.358,1.358,210.291,185.092,166.683
0.176,10.667,1.359,1.359,210.232,185.118,166.673
0.177,10.726,1.350,1.350,210.176,185.136,166.671
0.179,10.784,1.335,1.335,210.119,185.147,166.679
0.180,10.845,1.316,1.316,210.062,185.152,166.697
0.182,10.913,1.294,1.294,210.001,185.151,166.727
0.184,10.991,1.272,1.272,209.935,185.146,166.769
0.185,11.083,1.252,1.252,209.862,185.137,166.825
0.187,11.190,1.234,1.234,209.782,185.125,166.895
0.189,11.316,1.220,1.220,209.691,185.111,166.980
0.190,11.460,1.211,1.211,209.589,185.094,167.080
0.192,11.620,1.208,1.208,209.477,185.077,167.195
0.193,11.793,1.212,1.212,209.359,185.059,167.319
0.195,11.975,1.224,1.224,209.236,185.040,167.452
0.197,12.161,1.242,1.242,209.112,185.021,167.590
0.198,12.349,1.266,1.266,208.989,185.003,167.730
0.200,12.534,1.297,1.297,208.869,184.984,167.870
0.202,12.713,1.333,1.333,208.754,184.967,168.007
0.203,12.882,1.374,1.374,208.649,184.951,168.137
0.205,13.037,1.418,1.418,208.555,184.936,168.259
0.207,13.174,1.464,1.464,208.474,184.924,168.370
0.208,13.291,1.509,1.509,208.410,184.913,168.466
0.210,13.385,1.551,1.551,208.362,184.905,168.547
0.211,13.460,1.588,1.588,208.329,184.898,168.614
0.213,13.519,1.619,1.619,208.309,184.892,168.670
0.215,13.566,1.642,1.642,208.298,184.886,168.715
0.216,13.603,1.660,1.660,208.295,184.879,168.751
0.218,13.634,1.673,1.673,208.298,184.872,168.780
0.220,13.660,1.683,1.683,208.303,184.862,168.805
0.221,13.685,1.692,1.692,208.309,184.849,168.826
0.223,13.711,1.702,1.702,208.313,184.833,168.845
0.224,13.738,1.712,1.712,208.313,184.813,168.864
0.226,13.771,1.723,1.723,208.306,184.788,168.885
0.228,13.813,1.735,1.735,208.290,184.758,168.909
0.229,13.863,1.747,1.747,208.267,184.723,168.936
0.231,13.921,1.760,1.760,208.236,184.685,168.967
0.233,13.984,1.774,1.774,208.201,184.644,169.000
0.234,14.051,1.787,1.787,208.162,184.602,169.034
0.236,14.120,1.800,1.800,208.121,184.560,169.070
0.237,14.188,1.811,1.811,208.080,184.520,169.106
0.239,14.254,1.820,1.820,208.040,184.482,169.143
0.241,14.316,1.826,1.826,208.003,184.448,169.179
0.242,14.372,1.828,1.828,207.971,184.419,169.214
0.244,14.420,1.826,1.826,207.944,184.395,169.248
0.246,14.460,1.821,1.821,207.926,184.380,169.279
0.247,14.492,1.815,1.815,207.916,184.372,169.309
0.249,14.518,1.808,1.808,207.913,184.371,169.335
0.250,14.541,1.804,1.804,207.915,184.374,169.357
0.252,14.562,1.803,1.803,207.920,184.381,169.376
0.254,14.579,1.807,1.807,207.926,184.390,169.390
0.255,14.593,1.814,1.814,207.932,184.398,169.399
0.257,14.602,1.822,1.822,207.935,184.406,169.403
0.259,14.607,1.828,1.828,207.933,184.410,169.401
0.260,14.619,1.829,1.829,207.925,184.409,169.392
0.262,14.642,1.821,1.821,207.908,184.402,169.377
0.263,14.681,1.802,1.802,207.881,184.387,169.354
0.265,14.736,1.771,1.771,207.841,184.362,169.324
0.267,14.810,1.732,1.732,207.789,184.328,169.286
0.268,14.899,1.686,1.686,207.724,184.285,169.242
0.270,15.003,1.638,1.638,207.648,184.235,169.191
0.272,15.120,1.588,1.588,207.560,184.179,169.137
0.273,15.250,1.541,1.541,207.462,184.118,169.078
0.275,15.390,1.498,1.498,207.354,184.054,169.016
0.276,15.539,1.459,1.459,207.236,183.988,168.953
0.278,15.697,1.427,1.427,207.110,183.920,168.888
0.280,15.861,1.400,1.400,206.974,183.853,168.823
0.281,16.031,1.379,1.379,206.831,183.787,168.759
0.283,16.206,1.366,1.366,206.681,183.724,168.696
0.285,16.384,1.361,1.361,206.524,183.664,168.636
0.286,16.565,1.363,1.363,206.363,183.608,168.578
0.288,16.746,1.373,1.373,206.199,183.555,168.522
0.289,16.926,1.389,1.389,206.034,183.506,168.468
0.291,17.104,1.412,1.412,205.871,183.459,168.415
0.293,17.277,1.442,1.442,205.712,183.415,168.363
0.294,17.445,1.477,1.477,205.558,183.373,168.311
0.296,17.604,1.518,1.518,205.412,183.333,168.260
0.298,17.754,1.561,1.561,205.277,183.295,168.209
0.299,17.892,1.605,1.605,205.153,183.258,168.158
0.301,18.018,1.648,1.648,205.044,183.223,168.106
0.302,18.131,1.688,1.688,204.951,183.188,168.053
0.304,18.230,1.724,1.724,204.875,183.155,167.999
0.306,18.320,1.755,1.755,204.812,183.123,167.943
0.307,18.403,1.781,1.781,204.760,183.094,167.885
0.309,18.481,1.804,1.804,204.715,183.069,167.826
0.311,18.558,1.824,1.824,204.675,183.048,167.765
0.312,18.634,1.842,1.842,204.636,183.033,167.701
0.314,18.712,1.858,1.858,204.595,183.025,167.635
0.315,18.795,1.873,1.873,204.549,183.023,167.566
0.317,18.885,1.888,1.888,204.496,183.030,167.494
0.319,18.985,1.905,1.905,204.431,183.046,167.419
0.320,19.099,1.924,1.924,204.353,183.072,167.340
0.322,19.230,1.947,1.947,204.257,183.108,167.259
0.324,19.376,1.974,1.974,204.147,183.153,167.174
0.325,19.534,2.006,2.006,204.024,183.205,167.088
0.327,19.700,2.043,2.043,203.893,183.260,167.002
0.328,19.869,2.085,2.085,203.758,183.315,166.917
0.330,20.038,2.130,2.130,203.621,183.367,166.835
0.332,20.201,2.179,2.179,203.486,183.415,166.756
0.333,20.354,2.230,2.230,203.358,183.454,166.682
0.335,20.494,2.283,2.283,203.239,183.483,166.615
0.337,20.617,2.336,2.336,203.132,183.498,166.555
0.338,20.721,2.386,2.386,203.042,183.496,166.503
0.340,20.805,2.433,2.433,202.972,183.474,166.462
0.341,20.876,2.472,2.472,202.924,183.432,166.431
0.343,20.947,2.503,2.503,202.894,183.370,166.410
0.345,21.027,2.523,2.523,202.879,183.293,166.397
0.346,21.117,2.534,2.534,202.874,183.203,166.392
0.348,21.217,2.537,2.537,202.875,183.103,166.394
0.350,21.325,2.535,2.535,202.877,182.996,166.400
0.351,21.437,2.530,2.530,202.878,182.885,166.411
0.353,21.551,2.524,2.524,202.873,182.772,166.425
0.354,21.664,2.520,2.520,202.858,182.660,166.440
0.356,21.777,2.517,2.517,202.828,182.553,166.456
0.358,21.889,2.515,2.515,202.779,182.453,166.472
0.359,22.004,2.514,2.514,202.709,182.363,166.486
0.361,22.128,2.511,2.511,202.615,182.283,166.499
0.363,22.262,2.507,2.507,202.502,182.212,166.514
0.364,22.409,2.500,2.500,202.372,182.146,166.534
0.366,22.567,2.489,2.489,202.229,182.085,166.560
0.367,22.737,2.475,2.475,202.075,182.025,166.597
0.369,22.916,2.457,2.457,201.914,181.964,166.646
0.371,23.104,2.435,2.435,201.748,181.902,166.709
0.372,23.301,2.409,2.409,201.581,181.834,166.791
0.374,23.509,2.378,2.378,201.416,181.760,166.892
0.376,23.728,2.343,2.343,201.256,181.676,167.017
0.377,23.962,2.310,2.310,201.104,181.582,167.167
0.379,24.212,2.282,2.282,200.962,181.475,167.344
0.380,24.480,2.267,2.267,200.832,181.356,167.544
0.382,24.760,2.268,2.268,200.711,181.228,167.763
0.384,25.051,2.291,2.291,200.601,181.093,167.995
0.385,25.347,2.338,2.338,200.500,180.952,168.235
0.387,25.643,2.404,2.404,200.407,180.808,168.477
0.389,25.936,2.477,2.477,200.323,180.663,168.717
0.390,26.220,2.548,2.548,200.247,180.519,168.950
0.392,26.489,2.607,2.607,200.178,180.379,169.169
0.393,26.739,2.644,2.644,200.115,180.243,169.370
0.395,26.966,2.649,2.649,200.059,180.115,169.547
0.397,27.163,2.628,2.628,200.008,179.996,169.696
0.398,27.330,2.590,2.590,199.963,179.887,169.815
0.400,27.469,2.547,2.547,199.923,179.788,169.905
0.402,27.586,2.510,2.510,199.890,179.697,169.969
0.403,27.683,2.490,2.490,199.863,179.614,170.012
0.405,27.766,2.497,2.497,199.843,179.537,170.035
0.407,27.840,2.532,2.532,199.829,179.465,170.042
0.408,27.908,2.583,2.583,199.824,179.397,170.035
0.410,27.974,2.641,2.641,199.826,179.333,170.018
0.411,28.042,2.696,2.696,199.836,179.271,169.993
0.413,28.112,2.737,2.737,199.854,179.210,169.964
0.415,28.185,2.753,2.753,199.881,179.150,169.934
0.416,28.262,2.742,2.742,199.917,179.088,169.904
0.418,28.342,2.715,2.715,199.959,179.025,169.879
0.420,28.424,2.683,2.683,200.004,178.959,169.860
0.421,28.506,2.660,2.660,200.046,178.890,169.849
0.423,28.588,2.656,2.656,200.082,178.816,169.848
0.424,28.672,2.683,2.683,200.108,178.737,169.860
0.426,28.762,2.749,2.749,200.120,178.652,169.887
0.428,28.864,2.837,2.837,200.113,178.559,169.931
0.429,28.987,2.929,2.929,200.083,178.459,169.995
0.431,29.136,3.009,3.009,200.027,178.350,170.080
0.433,29.319,3.058,3.058,199.939,178.232,170.189
0.434,29.542,3.057,3.057,199.817,178.102,170.323
0.436,29.807,2.993,2.993,199.658,177.964,170.484
0.437,30.109,2.883,2.883,199.465,177.821,170.667
0.439,30.438,2.751,2.751,199.243,177.682,170.867
0.441,30.788,2.623,2.623,198.996,177.552,171.077
0.442,31.149,2.525,2.525,198.730,177.440,171.294
0.444,31.516,2.483,2.483,198.447,177.351,171.510
0.446,31.882,2.518,2.518,198.154,177.293,171.722
0.447,32.244,2.626,2.626,197.854,177.272,171.923
0.449,32.600,2.779,2.779,197.551,177.295,172.109
0.450,32.950,2.951,2.951,197.252,177.370,172.273
0.452,33.299,3.116,3.116,196.959,177.502,172.411
0.454,33.659,3.248,3.248,196.677,177.699,172.517
0.455,34.039,3.320,3.320,196.409,177.958,172.590
0.457,34.442,3.329,3.329,196.156,178.268,172.636
0.459,34.866,3.294,3.294,195.919,178.620,172.658
0.460,35.307,3.237,3.237,195.699,179.001,172.661
0.462,35.756,3.178,3.178,195.495,179.401,172.649
0.463,36.204,3.139,3.139,195.310,179.809,172.626
0.465,36.644,3.141,3.141,195.144,180.215,172.597
0.467,37.063,3.192,3.192,194.999,180.607,172.567
0.468,37.452,3.282,3.282,194.873,180.974,172.539
0.470,37.800,3.394,3.394,194.770,181.306,172.518
0.472,38.096,3.515,3.515,194.689,181.591,172.508
0.473,38.334,3.629,3.629,194.631,181.821,172.514
0.475,38.516,3.721,3.721,194.593,181.998,172.534
0.476,38.654,3.781,3.781,194.573,182.130,172.568
0.478,38.757,3.811,3.811,194.566,182.222,172.614
0.480,38.839,3.819,3.819,194.571,182.280,172.672
0.481,38.914,3.813,3.813,194.583,182.312,172.739
0.483,38.993,3.797,3.797,194.599,182.323,172.815
0.485,39.078,3.781,3.781,194.617,182.320,172.898
0.486,39.169,3.769,3.769,194.632,182.310,172.988
0.488,39.264,3.763,3.763,194.642,182.298,173.081
0.489,39.362,3.762,3.762,194.644,182.292,173.179
0.491,39.462,3.764,3.764,194.634,182.297,173.278
0.493,39.567,3.769,3.769,194.611,182.317,173.379
0.494,39.679,3.776,3.776,194.577,182.351,173.480
0.496,39.798,3.784,3.784,194.533,182.398,173.581
0.498,39.924,3.792,3.792,194.482,182.454,173.680
0.499,40.054,3.801,3.801,194.426,182.520,173.778
0.501,40.188,3.811,3.811,194.367,182.592,173.874
0.502,40.322,3.823,3.823,194.306,182.669,173.966
0.504,40.456,3.838,3.838,194.246,182.750,174.054
0.506,40.587,3.856,3.856,194.189,182.832,174.138
0.507,40.712,3.877,3.877,194.137,182.914,174.217
0.509,40.829,3.900,3.900,194.092,182.994,174.289
0.511,40.936,3.924,3.924,194.056,183.071,174.355
0.512,41.034,3.947,3.947,194.028,183.143,174.415
0.514,41.123,3.970,3.970,194.008,183.212,174.468
0.515,41.205,3.990,3.990,193.993,183.276,174.516
0.517,41.280,4.007,4.007,193.984,183.337,174.559
0.519,41.348,4.021,4.021,193.978,183.394,174.597
0.520,41.411,4.031,4.031,193.974,183.446,174.631
0.522,41.469,4.037,4.037,193.972,183.496,174.661
0.524,41.522,4.039,4.039,193.969,183.541,174.689
0.525,41.571,4.036,4.036,193.965,183.583,174.713
0.527,41.616,4.029,4.029,193.958,183.621,174.736
0.528,41.657,4.018,4.018,193.948,183.656,174.757
0.530,41.698,4.006,4.006,193.932,183.687,174.776
0.532,41.737,3.994,3.994,193.912,183.715,174.795
0.533,41.778,3.983,3.983,193.888,183.742,174.814
0.535,41.820,3.976,3.976,193.859,183.766,174.834
0.537,41.865,3.972,3.972,193.828,183.790,174.854
0.538,41.912,3.973,3.973,193.793,183.813,174.875
0.540,41.962,3.977,3.977,193.756,183.837,174.899
0.541,42.015,3.981,3.981,193.716,183.861,174.925
0.543,42.071,3.986,3.986,193.675,183.887,174.954
0.545,42.131,3.989,3.989,193.632,183.914,174.986
0.546,42.196,3.990,3.990,193.589,183.945,175.023
0.548,42.264,3.987,3.987,193.545,183.978,175.064
0.550,42.337,3.982,3.982,193.501,184.015,175.109
0.551,42.413,3.975,3.975,193.457,184.053,175.157
0.553,42.491,3.967,3.967,193.414,184.092,175.208
0.554,42.568,3.958,3.958,193.372,184.131,175.261
0.556,42.645,3.950,3.950,193.331,184.168,175.314
0.558,42.719,3.942,3.942,193.292,184.202,175.367
0.559,42.789,3.935,3.935,193.254,184.232,175.418
0.561,42.854,3.930,3.930,193.220,184.258,175.467
0.563,42.913,3.926,3.926,193.188,184.277,175.513
0.564,42.965,3.924,3.924,193.159,184.289,175.554
0.566,43.010,3.925,3.925,193.134,184.293,175.591
0.567,43.048,3.928,3.928,193.113,184.288,175.622
0.569,43.080,3.933,3.933,193.096,184.276,175.646
0.571,43.109,3.938,3.938,193.082,184.259,175.665
0.572,43.133,3.944,3.944,193.072,184.240,175.678
0.574,43.153,3.949,3.949,193.066,184.223,175.686
0.576,43.167,3.953,3.953,193.064,184.209,175.689
0.577,43.175,3.954,3.954,193.066,184.202,175.687
0.579,43.184,3.952,3.952,193.070,184.205,175.679
0.580,43.204,3.947,3.947,193.079,184.219,175.668
0.582,43.240,3.938,3.938,193.091,184.249,175.652
0.584,43.293,3.926,3.926,193.106,184.296,175.632
0.585,43.367,3.908,3.908,193.125,184.363,175.607
0.587,43.462,3.885,3.885,193.146,184.452,175.580
0.589,43.576,3.859,3.859,193.170,184.559,175.551
0.590,43.705,3.830,3.830,193.195,184.683,175.523
0.592,43.847,3.801,3.801,193.219,184.820,175.497
0.593,43.999,3.774,3.774,193.243,184.968,175.475
0.595,44.157,3.751,3.751,193.265,185.125,175.460
0.597,44.321,3.732,3.732,193.284,185.287,175.452
0.598,44.486,3.719,3.719,193.300,185.451,175.454
0.600,44.652,3.707,3.707,193.310,185.616,175.469
0.602,44.817,3.695,3.695,193.315,185.779,175.497
0.603,44.980,3.680,3.680,193.313,185.936,175.540
0.605,45.142,3.658,3.658,193.303,186.086,175.601
0.607,45.304,3.627,3.627,193.284,186.229,175.676
0.608,45.469,3.588,3.588,193.256,186.368,175.759
0.610,45.635,3.542,3.542,193.218,186.505,175.844
0.611,45.803,3.496,3.496,193.170,186.644,175.927
0.613,45.975,3.452,3.452,193.110,186.786,176.001
0.615,46.151,3.416,3.416,193.038,186.936,176.060
0.616,46.335,3.392,3.392,192.953,187.095,176.098
0.618,46.533,3.382,3.382,192.854,187.266,176.110
0.620,46.752,3.381,3.381,192.741,187.452,176.090
0.621,46.999,3.385,3.385,192.613,187.656,176.033
0.623,47.284,3.389,3.389,192.470,187.880,175.931
0.624,47.611,3.385,3.385,192.311,188.125,175.784
0.626,47.977,3.370,3.370,192.140,188.387,175.595
0.628,48.371,3.338,3.338,191.960,188.661,175.375
0.629,48.786,3.292,3.292,191.776,188.941,175.131
0.631,49.212,3.235,3.235,191.592,189.222,174.870
0.633,49.637,3.173,3.173,191.411,189.499,174.602
0.634,50.054,3.109,3.109,191.237,189.765,174.333
0.636,50.450,3.047,3.047,191.074,190.016,174.073
0.637,50.817,2.993,2.993,190.926,190.246,173.828
0.639,51.143,2.948,2.948,190.798,190.450,173.608
0.641,51.419,2.912,2.912,190.692,190.622,173.420
0.642,51.635,2.886,2.886,190.613,190.758,173.272
0.644,51.789,2.871,2.871,190.561,190.856,173.166
0.646,51.889,2.867,2.867,190.533,190.923,173.097
0.647,51.944,2.874,2.874,190.526,190.963,173.060
0.649,51.969,2.892,2.892,190.536,190.983,173.049
0.650,51.997,2.919,2.919,190.561,190.988,173.059
0.652,52.042,2.951,2.951,190.598,190.984,173.085
0.654,52.101,2.988,2.988,190.642,190.976,173.122
0.655,52.166,3.025,3.025,190.692,190.969,173.165
0.657,52.233,3.061,3.061,190.743,190.970,173.208
0.659,52.297,3.095,3.095,190.792,190.985,173.246
0.660,52.360,3.125,3.125,190.837,191.017,173.274
0.662,52.428,3.150,3.150,190.875,191.073,173.288
0.663,52.510,3.171,3.171,190.905,191.150,173.288
