"T","Distance","Radius","FreeRadius","X","Y","Z"
0.000,0.000,1.227,1.227,187.639,208.963,208.890
0.001,0.038,1.221,1.221,187.670,208.985,208.892
0.002,0.077,1.216,1.216,187.702,209.007,208.895
0.003,0.118,1.211,1.211,187.735,209.030,208.901
0.004,0.161,1.209,1.209,187.769,209.055,208.910
0.005,0.208,1.208,1.208,187.806,209.081,208.925
0.006,0.261,1.210,1.210,187.845,209.109,208.946
0.007,0.321,1.216,1.216,187.887,209.140,208.975
0.008,0.389,1.225,1.225,187.933,209.174,209.012
0.009,0.467,1.239,1.239,187.983,209.211,209.060
0.010,0.558,1.257,1.257,188.038,209.253,209.119
0.011,0.662,1.280,1.280,188.097,209.298,209.191
0.013,0.781,1.308,1.308,188.163,209.349,209.277
0.014,0.916,1.340,1.340,188.234,209.404,209.378
0.015,1.065,1.375,1.375,188.309,209.463,209.492
0.016,1.224,1.413,1.413,188.387,209.524,209.616
0.017,1.391,1.454,1.454,188.464,209.587,209.750
0.018,1.562,1.496,1.496,188.540,209.649,209.890
0.019,1.735,1.539,1.539,188.612,209.709,210.035
0.020,1.907,1.582,1.582,188.678,209.767,210.183
0.021,2.074,1.626,1.626,188.736,209.820,210.331
0.022,2.236,1.669,1.669,188.785,209.868,210.477
0.023,2.388,1.711,1.711,188.821,209.909,210.620
0.024,2.530,1.753,1.753,188.844,209.941,210.756
0.025,2.661,1.793,1.793,188.851,209.963,210.885
0.026,2.781,1.831,1.831,188.841,209.975,211.004
0.027,2.893,1.868,1.868,188.816,209.977,211.113
0.028,2.999,1.902,1.902,188.778,209.970,211.212
0.029,3.103,1.933,1.933,188.731,209.956,211.303
0.030,3.204,1.962,1.962,188.676,209.934,211.385
0.031,3.302,1.987,1.987,188.616,209.907,211.458
0.032,3.398,2.010,2.010,188.553,209.874,211.523
0.033,3.490,2.030,2.030,188.491,209.838,211.580
0.034,3.577,2.048,2.049,188.431,209.799,211.630
0.035,3.657,2.065,2.066,188.377,209.759,211.673
0.037,3.729,2.081,2.082,188.331,209.718,211.709
0.038,3.791,2.097,2.097,188.294,209.677,211.738
0.039,3.843,2.112,2.112,188.270,209.637,211.761
0.040,3.886,2.128,2.128,188.256,209.601,211.779
0.041,3.921,2.145,2.145,188.249,209.569,211.792
0.042,3.948,2.162,2.162,188.248,209.543,211.801
0.043,3.967,2.179,2.178,188.251,209.525,211.807
0.044,3.977,2.193,2.192,188.255,209.517,211.810
0.045,3.981,2.203,2.201,188.258,209.520,211.812
0.046,3.997,2.206,2.205,188.257,209.536,211.812
0.047,4.028,2.202,2.201,188.251,209.566,211.812
0.048,4.076,2.189,2.188,188.237,209.613,211.813
0.049,4.145,2.165,2.164,188.212,209.677,211.815
0.050,4.236,2.127,2.127,188.175,209.761,211.818
0.051,4.352,2.076,2.076,188.124,209.864,211.824
0.052,4.489,2.012,2.013,188.060,209.985,211.833
0.053,4.647,1.938,1.941,187.982,210.121,211.844
0.054,4.820,1.858,1.863,187.891,210.269,211.858
0.055,5.009,1.777,1.782,187.789,210.426,211.874
0.056,5.208,1.696,1.702,187.675,210.589,211.894
0.057,5.417,1.621,1.627,187.551,210.755,211.916
0.058,5.633,1.554,1.559,187.416,210.922,211.941
0.059,5.853,1.499,1.502,187.272,211.086,211.968
0.061,6.075,1.460,1.460,187.120,211.245,211.999
0.062,6.298,1.439,1.436,186.959,211.395,212.033
0.063,6.520,1.436,1.427,186.790,211.535,212.069
0.064,6.739,1.447,1.434,186.615,211.661,212.108
0.065,6.956,1.470,1.453,186.435,211.775,212.150
0.066,7.169,1.504,1.484,186.253,211.876,212.192
0.067,7.377,1.545,1.524,186.070,211.967,212.235
0.068,7.580,1.592,1.572,185.890,212.048,212.277
0.069,7.774,1.642,1.626,185.713,212.119,212.318
0.070,7.960,1.692,1.684,185.543,212.182,212.357
0.071,8.135,1.741,1.745,185.381,212.238,212.393
0.072,8.298,1.786,1.806,185.229,212.286,212.425
0.073,8.445,1.828,1.867,185.091,212.329,212.453
0.074,8.577,1.867,1.926,184.967,212.367,212.475
0.075,8.690,1.903,1.984,184.860,212.401,212.490
0.076,8.784,1.936,2.037,184.771,212.431,212.499
0.077,8.862,1.966,2.086,184.698,212.459,212.502
0.078,8.924,1.994,2.130,184.641,212.483,212.499
0.079,8.975,2.019,2.167,184.596,212.505,212.492
0.080,9.016,2.042,2.195,184.561,212.525,212.480
0.081,9.051,2.062,2.215,184.535,212.542,212.465
0.082,9.081,2.081,2.227,184.516,212.558,212.448
0.084,9.109,2.097,2.231,184.501,212.572,212.429
0.085,9.136,2.112,2.230,184.489,212.585,212.409
0.086,9.162,2.126,2.224,184.478,212.597,212.389
0.087,9.188,2.138,2.215,184.465,212.609,212.369
0.088,9.215,2.149,2.205,184.449,212.619,212.350
0.089,9.244,2.159,2.194,184.428,212.630,212.333
0.090,9.276,2.168,2.184,184.404,212.641,212.318
0.091,9.309,2.176,2.177,184.375,212.654,212.304
0.092,9.346,2.184,2.174,184.344,212.667,212.292
0.093,9.385,2.192,2.174,184.310,212.683,212.280
0.094,9.426,2.199,2.178,184.274,212.701,212.271
0.095,9.469,2.206,2.184,184.238,212.723,212.262
0.096,9.515,2.213,2.192,184.201,212.749,212.254
0.097,9.563,2.219,2.201,184.164,212.778,212.247
0.098,9.613,2.225,2.212,184.128,212.813,212.241
0.099,9.667,2.232,2.223,184.093,212.853,212.236
0.100,9.723,2.238,2.235,184.061,212.899,212.231
0.101,9.784,2.245,2.246,184.031,212.952,212.226
0.102,9.848,2.251,2.256,184.003,213.010,212.222
0.103,9.916,2.258,2.266,183.977,213.072,212.218
0.104,9.986,2.266,2.275,183.954,213.138,212.214
0.105,10.059,2.274,2.285,183.933,213.208,212.211
0.106,10.133,2.284,2.294,183.914,213.279,212.207
0.108,10.208,2.295,2.305,183.896,213.352,212.203
0.109,10.283,2.308,2.315,183.881,213.425,212.198
0.110,10.358,2.322,2.327,183.866,213.498,212.193
0.111,10.431,2.338,2.340,183.853,213.570,212.187
0.112,10.502,2.357,2.354,183.842,213.640,212.181
0.113,10.570,2.377,2.370,183.832,213.707,212.174
0.114,10.635,2.399,2.387,183.822,213.771,212.166
0.115,10.697,2.421,2.404,183.814,213.832,212.158
0.116,10.756,2.442,2.422,183.807,213.890,212.151
0.117,10.811,2.462,2.440,183.801,213.945,212.144
0.118,10.864,2.479,2.458,183.797,213.997,212.139
0.119,10.915,2.494,2.476,183.794,214.047,212.135
0.120,10.963,2.504,2.493,183.792,214.095,212.134
0.121,11.009,2.510,2.509,183.792,214.141,212.137
0.122,11.054,2.511,2.523,183.793,214.186,212.143
0.123,11.098,2.507,2.537,183.796,214.229,212.153
0.124,11.143,2.500,2.549,183.800,214.271,212.168
0.125,11.189,2.491,2.561,183.806,214.312,212.188
0.126,11.237,2.483,2.573,183.813,214.352,212.213
0.127,11.288,2.476,2.585,183.822,214.394,212.241
0.128,11.341,2.471,2.597,183.831,214.438,212.271
0.129,11.398,2.472,2.610,183.841,214.486,212.298
0.130,11.458,2.477,2.624,183.852,214.539,212.323
0.132,11.522,2.491,2.639,183.863,214.599,212.342
0.133,11.593,2.512,2.656,183.874,214.668,212.354
0.134,11.672,2.540,2.674,183.884,214.747,212.356
0.135,11.763,2.574,2.694,183.893,214.837,212.346
0.136,11.870,2.614,2.716,183.901,214.941,212.322
0.137,11.994,2.658,2.740,183.908,215.058,212.282
0.138,12.140,2.705,2.766,183.913,215.192,212.224
0.139,12.307,2.755,2.796,183.917,215.341,212.147
0.140,12.493,2.805,2.828,183.919,215.502,212.055
0.141,12.693,2.856,2.863,183.920,215.672,211.950
0.142,12.903,2.907,2.901,183.920,215.848,211.836
0.143,13.117,2.956,2.942,183.920,216.024,211.715
0.144,13.331,3.003,2.985,183.920,216.199,211.591
0.145,13.541,3.049,3.029,183.920,216.368,211.467
0.146,13.741,3.093,3.073,183.921,216.527,211.346
0.147,13.927,3.134,3.117,183.923,216.674,211.231
0.148,14.094,3.172,3.159,183.926,216.804,211.126
0.149,14.238,3.208,3.199,183.931,216.913,211.033
0.150,14.353,3.240,3.236,183.939,216.999,210.955
0.151,14.439,3.269,3.268,183.948,217.060,210.895
0.152,14.499,3.294,3.296,183.958,217.098,210.851
0.153,14.536,3.315,3.319,183.968,217.118,210.821
0.154,14.556,3.332,3.337,183.978,217.123,210.805
0.156,14.567,3.345,3.350,183.985,217.117,210.801
0.157,14.584,3.353,3.358,183.990,217.102,210.807
0.158,14.609,3.357,3.361,183.990,217.082,210.822
0.159,14.640,3.356,3.359,183.986,217.060,210.844
0.160,14.677,3.350,3.352,183.976,217.041,210.873
0.161,14.717,3.339,3.339,183.959,217.026,210.907
0.162,14.763,3.322,3.322,183.934,217.021,210.945
0.163,14.815,3.301,3.300,183.900,217.028,210.985
0.164,14.878,3.276,3.274,183.858,217.048,211.026
0.165,14.950,3.247,3.246,183.807,217.079,211.068
0.166,15.031,3.216,3.215,183.751,217.118,211.111
0.167,15.119,3.185,3.184,183.689,217.162,211.155
0.168,15.211,3.153,3.152,183.625,217.209,211.200
0.169,15.304,3.123,3.122,183.558,217.256,211.247
0.170,15.397,3.094,3.094,183.491,217.299,211.294
0.171,15.487,3.069,3.069,183.425,217.338,211.342
0.172,15.573,3.048,3.048,183.362,217.367,211.391
0.173,15.653,3.031,3.031,183.302,217.386,211.441
0.174,15.727,3.017,3.017,183.248,217.391,211.492
0.175,15.798,3.004,3.004,183.201,217.379,211.543
0.176,15.870,2.992,2.992,183.161,217.350,211.596
0.177,15.947,2.979,2.979,183.127,217.307,211.649
0.178,16.029,2.963,2.964,183.098,217.252,211.704
0.180,16.117,2.945,2.945,183.074,217.190,211.761
0.181,16.209,2.921,2.921,183.053,217.122,211.820
0.182,16.304,2.892,2.892,183.034,217.053,211.881
0.183,16.399,2.856,2.856,183.016,216.985,211.945
0.184,16.493,2.814,2.814,182.998,216.922,212.012
0.185,16.584,2.766,2.766,182.979,216.865,212.082
0.186,16.673,2.714,2.714,182.957,216.820,212.156
0.187,16.761,2.660,2.660,182.933,216.788,212.233
0.188,16.848,2.603,2.603,182.904,216.773,212.315
0.189,16.941,2.546,2.546,182.871,216.776,212.401
0.190,17.040,2.489,2.489,182.834,216.794,212.491
0.191,17.147,2.434,2.434,182.794,216.825,212.585
0.192,17.262,2.381,2.381,182.752,216.867,212.683
0.193,17.383,2.332,2.332,182.709,216.917,212.785
0.194,17.511,2.287,2.287,182.664,216.973,212.891
0.195,17.644,2.244,2.244,182.620,217.033,213.001
0.196,17.779,2.205,2.205,182.577,217.094,213.114
0.197,17.917,2.167,2.167,182.535,217.154,213.231
0.198,18.055,2.132,2.132,182.496,217.210,213.351
0.199,18.193,2.098,2.098,182.459,217.260,213.474
0.200,18.330,2.066,2.066,182.427,217.301,213.601
0.201,18.466,2.035,2.035,182.399,217.333,213.730
0.203,18.603,2.005,2.005,182.374,217.357,213.862
0.204,18.739,1.975,1.975,182.352,217.371,213.997
0.205,18.877,1.947,1.947,182.331,217.378,214.132
0.206,19.016,1.920,1.920,182.311,217.378,214.270
0.207,19.156,1.893,1.893,182.291,217.371,214.408
0.208,19.297,1.869,1.869,182.270,217.358,214.547
0.209,19.439,1.846,1.846,182.247,217.340,214.686
0.210,19.582,1.825,1.825,182.222,217.317,214.825
0.211,19.726,1.806,1.806,182.193,217.289,214.963
0.212,19.871,1.789,1.789,182.160,217.258,215.101
0.213,20.016,1.774,1.774,182.121,217.224,215.237
0.214,20.162,1.762,1.762,182.078,217.187,215.371
0.215,20.307,1.750,1.750,182.030,217.149,215.502
0.216,20.451,1.740,1.740,181.978,217.110,215.630
0.217,20.592,1.729,1.729,181.922,217.070,215.754
0.218,20.729,1.718,1.718,181.865,217.031,215.873
0.219,20.863,1.705,1.705,181.805,216.993,215.986
0.220,20.990,1.691,1.691,181.745,216.957,216.092
0.221,21.111,1.673,1.673,181.684,216.924,216.191
0.222,21.224,1.653,1.653,181.624,216.894,216.282
0.223,21.329,1.629,1.629,181.565,216.868,216.365
0.224,21.424,1.602,1.602,181.508,216.847,216.437
0.225,21.508,1.573,1.573,181.453,216.832,216.500
0.227,21.582,1.544,1.544,181.401,216.822,216.552
0.228,21.647,1.516,1.516,181.352,216.817,216.594
0.229,21.704,1.489,1.489,181.305,216.817,216.627
0.230,21.755,1.464,1.464,181.261,216.820,216.651
0.231,21.800,1.443,1.443,181.220,216.827,216.667
0.232,21.841,1.427,1.427,181.180,216.835,216.676
0.233,21.880,1.416,1.416,181.142,216.846,216.678
0.234,21.918,1.412,1.412,181.107,216.857,216.674
0.235,21.955,1.412,1.412,181.073,216.868,216.665
0.236,21.992,1.416,1.416,181.041,216.880,216.651
0.237,22.029,1.422,1.422,181.010,216.890,216.633
0.238,22.067,1.430,1.430,180.981,216.898,216.611
0.239,22.105,1.439,1.439,180.952,216.905,216.587
0.240,22.144,1.448,1.448,180.923,216.911,216.561
0.241,22.184,1.455,1.455,180.893,216.918,216.535
0.242,22.225,1.459,1.459,180.860,216.924,216.511
0.243,22.268,1.460,1.460,180.824,216.933,216.489
0.244,22.314,1.458,1.458,180.784,216.944,216.471
0.245,22.363,1.452,1.452,180.738,216.959,216.459
0.246,22.419,1.445,1.445,180.686,216.977,216.453
0.247,22.483,1.436,1.436,180.627,217.001,216.455
0.248,22.558,1.425,1.425,180.558,217.031,216.466
0.249,22.647,1.415,1.415,180.481,217.067,216.488
0.251,22.751,1.404,1.404,180.392,217.111,216.521
0.252,22.870,1.393,1.393,180.294,217.162,216.566
0.253,23.002,1.384,1.384,180.188,217.218,216.621
0.254,23.144,1.376,1.376,180.077,217.280,216.683
0.255,23.291,1.370,1.370,179.963,217.344,216.752
0.256,23.442,1.364,1.364,179.849,217.410,216.824
0.257,23.593,1.359,1.359,179.735,217.476,216.898
0.258,23.740,1.355,1.355,179.626,217.541,216.973
0.259,23.880,1.351,1.351,179.524,217.603,217.046
0.260,24.011,1.347,1.347,179.429,217.661,217.115
0.261,24.128,1.342,1.342,179.346,217.714,217.178
0.262,24.229,1.337,1.337,179.276,217.760,217.235
0.263,24.311,1.331,1.331,179.221,217.798,217.282
0.264,24.372,1.324,1.324,179.182,217.827,217.319
0.265,24.415,1.316,1.316,179.157,217.848,217.347
0.266,24.443,1.309,1.309,179.144,217.862,217.367
0.267,24.458,1.301,1.301,179.142,217.870,217.380
0.268,24.466,1.295,1.295,179.147,217.872,217.385
0.269,24.479,1.290,1.290,179.159,217.868,217.385
0.270,24.498,1.286,1.286,179.176,217.860,217.379
0.271,24.523,1.284,1.284,179.196,217.848,217.369
0.272,24.552,1.285,1.285,179.216,217.833,217.354
0.273,24.584,1.289,1.289,179.236,217.816,217.337
0.275,24.617,1.295,1.295,179.253,217.797,217.317
0.276,24.649,1.303,1.303,179.266,217.776,217.296
0.277,24.680,1.311,1.311,179.275,217.756,217.274
0.278,24.708,1.319,1.319,179.279,217.736,217.254
0.279,24.732,1.326,1.326,179.282,217.719,217.238
0.280,24.751,1.330,1.330,179.283,217.704,217.227
0.281,24.762,1.332,1.332,179.284,217.693,217.223
0.282,24.770,1.330,1.330,179.286,217.688,217.228
0.283,24.786,1.323,1.323,179.290,217.689,217.245
0.284,24.818,1.311,1.311,179.297,217.698,217.274
0.285,24.866,1.295,1.295,179.309,217.715,217.318
0.286,24.934,1.277,1.277,179.326,217.741,217.378
0.287,25.025,1.257,1.257,179.350,217.779,217.457
0.288,25.140,1.237,1.237,179.382,217.828,217.556
0.289,25.278,1.219,1.219,179.422,217.888,217.674
0.290,25.435,1.204,1.204,179.468,217.957,217.807
0.291,25.606,1.193,1.193,179.519,218.032,217.952
0.292,25.787,1.189,1.189,179.576,218.113,218.104
0.293,25.974,1.191,1.191,179.636,218.195,218.260
0.294,26.161,1.202,1.202,179.698,218.278,218.416
0.295,26.345,1.218,1.218,179.762,218.360,218.568
0.296,26.521,1.239,1.239,179.827,218.437,218.712
0.297,26.685,1.263,1.263,179.891,218.509,218.845
0.299,26.833,1.288,1.288,179.953,218.572,218.963
0.300,26.960,1.314,1.314,180.013,218.625,219.062
0.301,27.063,1.338,1.338,180.069,218.665,219.138
0.302,27.143,1.358,1.358,180.122,218.693,219.192
0.303,27.206,1.375,1.375,180.171,218.711,219.227
0.304,27.258,1.385,1.385,180.219,218.718,219.246
0.305,27.304,1.389,1.389,180.264,218.718,219.252
0.306,27.349,1.387,1.387,180.309,218.710,219.248
0.307,27.396,1.382,1.382,180.353,218.698,219.238
0.308,27.446,1.372,1.372,180.398,218.681,219.225
0.309,27.497,1.360,1.360,180.444,218.663,219.212
0.310,27.550,1.346,1.346,180.492,218.643,219.203
0.311,27.603,1.331,1.331,180.542,218.623,219.200
0.312,27.660,1.315,1.315,180.595,218.606,219.206
0.313,27.721,1.299,1.299,180.652,218.592,219.225
0.314,27.790,1.285,1.285,180.712,218.581,219.258
0.315,27.865,1.272,1.272,180.772,218.575,219.302
0.316,27.946,1.262,1.262,180.831,218.572,219.358
0.317,28.031,1.255,1.255,180.886,218.574,219.422
0.318,28.120,1.250,1.250,180.936,218.579,219.495
0.319,28.211,1.250,1.250,180.979,218.589,219.575
0.320,28.303,1.254,1.254,181.012,218.603,219.660
0.322,28.397,1.263,1.263,181.033,218.622,219.749
0.323,28.493,1.277,1.277,181.041,218.644,219.842
0.324,28.591,1.297,1.297,181.032,218.671,219.936
0.325,28.694,1.323,1.323,181.006,218.703,220.031
0.326,28.804,1.354,1.354,180.961,218.739,220.125
0.327,28.924,1.389,1.389,180.896,218.778,220.218
0.328,29.054,1.428,1.428,180.815,218.820,220.310
0.329,29.194,1.469,1.469,180.719,218.863,220.402
0.330,29.342,1.511,1.511,180.612,218.905,220.495
0.331,29.497,1.555,1.555,180.495,218.946,220.588
0.332,29.657,1.597,1.597,180.371,218.983,220.682
0.333,29.821,1.639,1.639,180.242,219.016,220.778
0.334,29.986,1.679,1.679,180.111,219.043,220.876
0.335,30.153,1.716,1.716,179.980,219.062,220.977
0.336,30.318,1.751,1.751,179.852,219.073,221.081
0.337,30.481,1.785,1.785,179.729,219.074,221.188
0.338,30.642,1.818,1.818,179.612,219.063,221.298
0.339,30.800,1.849,1.849,179.504,219.042,221.412
0.340,30.956,1.880,1.880,179.404,219.012,221.526
0.341,31.107,1.910,1.910,179.311,218.975,221.640
0.342,31.253,1.940,1.940,179.227,218.933,221.752
0.343,31.393,1.970,1.970,179.150,218.888,221.859
0.344,31.524,2.000,2.000,179.080,218.841,221.960
0.346,31.645,2.030,2.030,179.018,218.795,222.053
0.347,31.755,2.060,2.060,178.964,218.750,222.137
0.348,31.850,2.089,2.089,178.917,218.710,222.210
0.349,31.930,2.117,2.117,178.877,218.675,222.270
0.350,31.991,2.143,2.143,178.844,218.649,222.315
0.351,32.034,2.168,2.168,178.819,218.631,222.343
0.352,32.059,2.190,2.190,178.800,218.623,222.357
0.353,32.071,2.210,2.210,178.788,218.623,222.361
0.354,32.082,2.227,2.227,178.781,218.631,222.358
0.355,32.098,2.242,2.242,178.781,218.645,222.352
0.356,32.120,2.254,2.254,178.786,218.666,222.347
0.357,32.147,2.266,2.266,178.796,218.691,222.346
0.358,32.181,2.277,2.277,178.811,218.721,222.354
0.359,32.224,2.289,2.289,178.830,218.754,222.374
0.360,32.280,2.302,2.302,178.853,218.789,222.410
0.361,32.352,2.318,2.318,178.880,218.826,222.465
0.362,32.444,2.338,2.338,178.910,218.864,222.545
0.363,32.562,2.361,2.361,178.942,218.901,222.651
0.364,32.702,2.390,2.390,178.977,218.937,222.782
0.365,32.861,2.423,2.423,179.013,218.969,222.934
0.366,33.034,2.458,2.458,179.048,218.995,223.102
0.367,33.217,2.495,2.495,179.083,219.013,223.280
0.368,33.406,2.531,2.531,179.115,219.022,223.466
0.370,33.595,2.565,2.565,179.145,219.019,223.653
0.371,33.782,2.595,2.595,179.170,219.002,223.837
0.372,33.962,2.620,2.620,179.190,218.970,224.013
0.373,34.135,2.638,2.638,179.204,218.921,224.178
0.374,34.298,2.647,2.647,179.210,218.852,224.326
0.375,34.453,2.646,2.646,179.208,218.762,224.452
0.376,34.605,2.636,2.636,179.197,218.649,224.553
0.377,34.759,2.620,2.620,179.178,218.515,224.628
0.378,34.920,2.598,2.598,179.152,218.365,224.679
0.379,35.089,2.572,2.572,179.120,218.201,224.709
0.380,35.265,2.544,2.544,179.085,218.029,224.719
0.381,35.447,2.517,2.516,179.047,217.852,224.712
0.382,35.631,2.490,2.490,179.009,217.674,224.689
0.383,35.813,2.467,2.467,178.971,217.498,224.654
0.384,35.992,2.448,2.448,178.936,217.330,224.606
0.385,36.162,2.436,2.436,178.905,217.173,224.550
0.386,36.320,2.427,2.428,178.879,217.030,224.486
0.387,36.463,2.423,2.423,178.860,216.906,224.418
0.388,36.588,2.422,2.422,178.849,216.804,224.346
0.389,36.696,2.422,2.422,178.847,216.723,224.275
0.390,36.790,2.422,2.423,178.850,216.658,224.208
0.391,36.871,2.423,2.423,178.858,216.605,224.147
0.392,36.939,2.422,2.422,178.869,216.559,224.098
0.394,36.995,2.418,2.418,178.882,216.517,224.062
0.395,37.043,2.411,2.411,178.896,216.474,224.045
0.396,37.093,2.402,2.401,178.908,216.426,224.049
0.397,37.157,2.391,2.391,178.918,216.369,224.077
0.398,37.248,2.381,2.381,178.923,216.299,224.134
0.399,37.373,2.374,2.373,178.923,216.211,224.223
0.400,37.540,2.371,2.370,178.916,216.101,224.347
0.401,37.752,2.374,2.373,178.900,215.965,224.510
0.402,38.005,2.384,2.383,178.876,215.806,224.706
0.403,38.293,2.405,2.404,178.845,215.628,224.929
0.404,38.606,2.436,2.436,178.806,215.433,225.171
0.405,38.936,2.480,2.480,178.761,215.228,225.426
0.406,39.276,2.535,2.536,178.710,215.015,225.687
0.407,39.618,2.598,2.601,178.653,214.799,225.945
0.408,39.953,2.669,2.672,178.592,214.584,226.195
0.409,40.273,2.743,2.748,178.527,214.375,226.428
0.410,40.572,2.820,2.825,178.458,214.174,226.639
0.411,40.841,2.897,2.901,178.387,213.987,226.818
0.412,41.075,2.972,2.975,178.313,213.817,226.961
0.413,41.269,3.042,3.044,178.238,213.668,227.060
0.414,41.429,3.106,3.105,178.162,213.539,227.117
0.415,41.566,3.161,3.157,178.087,213.426,227.138
0.416,41.690,3.209,3.202,178.015,213.326,227.127
0.418,41.808,3.251,3.240,177.946,213.237,227.090
0.419,41.927,3.287,3.273,177.882,213.155,227.033
0.420,42.049,3.318,3.302,177.825,213.076,226.959
0.421,42.174,3.344,3.328,177.775,212.999,226.875
0.422,42.301,3.367,3.352,177.734,212.919,226.786
0.423,42.429,3.387,3.377,177.703,212.833,226.696
0.424,42.557,3.406,3.402,177.685,212.739,226.611
0.425,42.687,3.423,3.429,177.679,212.632,226.536
0.426,42.822,3.439,3.459,177.687,212.512,226.476
