"T","Distance","Radius","FreeRadius","X","Y","Z"
0.000,0.000,1.309,1.309,186.721,210.340,212.139
0.001,0.105,1.269,1.269,186.754,210.415,212.205
0.003,0.210,1.231,1.231,186.786,210.492,212.270
0.004,0.316,1.195,1.195,186.814,210.573,212.330
0.006,0.421,1.162,1.162,186.838,210.660,212.386
0.007,0.529,1.134,1.134,186.856,210.755,212.434
0.009,0.642,1.111,1.111,186.867,210.859,212.473
0.010,0.762,1.094,1.094,186.869,210.976,212.501
0.011,0.894,1.085,1.085,186.860,211.107,212.517
0.013,1.042,1.084,1.084,186.840,211.254,212.519
0.014,1.210,1.091,1.091,186.807,211.418,212.504
0.016,1.404,1.107,1.107,186.759,211.603,212.471
0.017,1.626,1.131,1.131,186.694,211.809,212.419
0.018,1.881,1.165,1.165,186.613,212.039,212.345
0.020,2.167,1.209,1.209,186.514,212.290,212.251
0.021,2.479,1.263,1.263,186.401,212.560,212.142
0.023,2.810,1.326,1.326,186.275,212.842,212.022
0.024,3.156,1.398,1.398,186.140,213.133,211.893
0.026,3.510,1.478,1.478,185.996,213.428,211.762
0.027,3.866,1.565,1.565,185.846,213.723,211.630
0.028,4.218,1.658,1.658,185.693,214.013,211.503
0.030,4.560,1.757,1.757,185.538,214.295,211.385
0.031,4.887,1.861,1.861,185.384,214.564,211.279
0.033,5.194,1.968,1.968,185.233,214.814,211.190
0.034,5.473,2.078,2.078,185.087,215.043,211.122
0.035,5.723,2.190,2.190,184.949,215.246,211.078
0.037,5.940,2.302,2.302,184.819,215.420,211.061
0.038,6.131,2.414,2.414,184.698,215.567,211.066
0.040,6.299,2.525,2.525,184.586,215.689,211.092
0.041,6.449,2.633,2.633,184.482,215.789,211.135
0.043,6.585,2.737,2.737,184.388,215.869,211.191
0.044,6.710,2.835,2.835,184.302,215.931,211.258
0.045,6.826,2.925,2.925,184.225,215.977,211.331
0.047,6.933,3.006,3.006,184.156,216.009,211.407
0.048,7.033,3.074,3.074,184.096,216.030,211.484
0.050,7.124,3.128,3.128,184.044,216.041,211.557
0.051,7.204,3.167,3.167,184.000,216.046,211.624
0.052,7.271,3.189,3.189,183.965,216.046,211.681
0.054,7.323,3.199,3.199,183.938,216.043,211.726
0.055,7.361,3.200,3.200,183.919,216.038,211.758
0.057,7.386,3.195,3.195,183.906,216.033,211.779
0.058,7.400,3.188,3.188,183.899,216.026,211.790
0.060,7.407,3.182,3.182,183.898,216.021,211.794
0.061,7.414,3.180,3.180,183.900,216.015,211.790
0.062,7.426,3.185,3.185,183.906,216.012,211.780
0.064,7.442,3.194,3.194,183.914,216.011,211.767
0.065,7.461,3.205,3.205,183.924,216.012,211.750
0.067,7.483,3.217,3.217,183.935,216.018,211.732
0.068,7.506,3.228,3.228,183.946,216.027,211.714
0.070,7.531,3.236,3.236,183.957,216.041,211.697
0.071,7.557,3.240,3.240,183.965,216.061,211.682
0.072,7.585,3.237,3.237,183.972,216.087,211.671
0.074,7.616,3.230,3.230,183.976,216.116,211.662
0.075,7.650,3.219,3.219,183.977,216.148,211.655
0.077,7.685,3.207,3.207,183.975,216.183,211.650
0.078,7.721,3.195,3.195,183.970,216.218,211.646
0.079,7.757,3.185,3.185,183.961,216.254,211.644
0.081,7.794,3.177,3.177,183.948,216.288,211.643
0.082,7.830,3.173,3.173,183.930,216.320,211.641
0.084,7.866,3.173,3.173,183.908,216.348,211.640
0.085,7.903,3.174,3.174,183.880,216.372,211.639
0.087,7.940,3.176,3.176,183.848,216.390,211.636
0.088,7.981,3.176,3.176,183.809,216.402,211.633
0.089,8.025,3.175,3.175,183.765,216.406,211.628
0.091,8.074,3.169,3.169,183.718,216.406,211.618
0.092,8.126,3.159,3.159,183.668,216.403,211.601
0.094,8.182,3.143,3.143,183.619,216.400,211.574
0.095,8.244,3.119,3.119,183.573,216.398,211.533
0.096,8.314,3.087,3.087,183.530,216.401,211.478
0.098,8.396,3.045,3.045,183.494,216.410,211.404
0.099,8.497,2.992,2.992,183.467,216.428,211.309
0.101,8.621,2.927,2.927,183.449,216.457,211.190
0.102,8.772,2.850,2.850,183.444,216.500,211.045
0.104,8.956,2.762,2.762,183.453,216.558,210.870
0.105,9.178,2.670,2.670,183.478,216.634,210.663
0.106,9.441,2.577,2.577,183.521,216.729,210.422
0.108,9.741,2.489,2.489,183.581,216.843,210.151
0.109,10.070,2.411,2.411,183.654,216.971,209.856
0.111,10.422,2.346,2.346,183.739,217.110,209.545
0.112,10.788,2.300,2.300,183.832,217.256,209.222
0.113,11.161,2.271,2.271,183.930,217.406,208.895
0.115,11.533,2.257,2.257,184.031,217.557,208.571
0.116,11.896,2.252,2.252,184.132,217.704,208.255
0.118,12.242,2.252,2.252,184.230,217.845,207.955
0.119,12.563,2.255,2.255,184.323,217.976,207.676
0.121,12.851,2.256,2.256,184.408,218.093,207.426
0.122,13.100,2.250,2.250,184.481,218.192,207.211
0.123,13.300,2.238,2.238,184.541,218.272,207.038
0.125,13.450,2.222,2.222,184.587,218.329,206.907
0.126,13.556,2.205,2.205,184.620,218.368,206.813
0.128,13.624,2.189,2.189,184.642,218.388,206.752
0.129,13.661,2.178,2.178,184.655,218.394,206.719
0.130,13.676,2.174,2.174,184.660,218.386,206.707
0.132,13.694,2.179,2.179,184.659,218.368,206.711
0.133,13.726,2.193,2.193,184.655,218.341,206.727
0.135,13.766,2.213,2.213,184.649,218.308,206.749
0.136,13.810,2.235,2.235,184.642,218.271,206.772
0.138,13.854,2.254,2.254,184.636,218.231,206.790
0.139,13.894,2.267,2.267,184.634,218.192,206.798
0.140,13.932,2.270,2.270,184.636,218.155,206.791
0.142,13.974,2.258,2.258,184.645,218.123,206.765
0.143,14.026,2.232,2.232,184.657,218.096,206.722
0.145,14.088,2.195,2.195,184.672,218.074,206.666
0.146,14.158,2.152,2.152,184.685,218.060,206.599
0.148,14.233,2.109,2.109,184.695,218.054,206.526
0.149,14.311,2.070,2.070,184.700,218.056,206.448
0.150,14.390,2.040,2.040,184.697,218.067,206.369
0.152,14.471,2.025,2.025,184.684,218.088,206.292
0.153,14.553,2.025,2.025,184.657,218.120,206.222
0.155,14.639,2.039,2.039,184.616,218.164,206.160
0.156,14.735,2.061,2.061,184.557,218.221,206.109
0.157,14.846,2.088,2.088,184.478,218.290,206.075
0.159,14.978,2.114,2.114,184.377,218.374,206.058
0.160,15.132,2.135,2.135,184.256,218.470,206.059
0.162,15.307,2.147,2.147,184.119,218.576,206.075
0.163,15.496,2.147,2.147,183.970,218.689,206.104
0.165,15.697,2.136,2.136,183.812,218.807,206.143
0.166,15.904,2.117,2.117,183.650,218.927,206.190
0.167,16.112,2.090,2.090,183.489,219.046,206.243
0.169,16.315,2.058,2.058,183.331,219.163,206.299
0.170,16.509,2.024,2.024,183.182,219.273,206.355
0.172,16.689,1.989,1.989,183.045,219.376,206.410
0.173,16.848,1.955,1.955,182.925,219.467,206.460
0.174,16.982,1.923,1.923,182.825,219.545,206.504
0.176,17.086,1.896,1.896,182.749,219.607,206.539
0.177,17.157,1.874,1.874,182.699,219.651,206.563
0.179,17.201,1.858,1.858,182.671,219.681,206.580
0.180,17.223,1.850,1.850,182.660,219.697,206.590
0.182,17.232,1.851,1.851,182.664,219.704,206.595
0.183,17.246,1.862,1.862,182.677,219.701,206.597
0.184,17.267,1.880,1.880,182.697,219.693,206.599
0.186,17.292,1.903,1.903,182.718,219.680,206.601
0.187,17.316,1.925,1.925,182.737,219.666,206.606
0.189,17.337,1.945,1.945,182.749,219.652,206.616
0.190,17.357,1.958,1.958,182.751,219.640,206.632
0.191,17.385,1.961,1.961,182.739,219.634,206.656
0.193,17.431,1.950,1.950,182.708,219.634,206.690
0.194,17.501,1.927,1.927,182.656,219.644,206.736
0.196,17.594,1.898,1.898,182.583,219.661,206.792
0.197,17.705,1.865,1.865,182.494,219.684,206.854
0.199,17.832,1.834,1.834,182.391,219.712,206.922
0.200,17.969,1.809,1.809,182.277,219.744,206.992
0.201,18.114,1.794,1.794,182.155,219.777,207.062
0.203,18.261,1.794,1.794,182.027,219.810,207.129
0.204,18.408,1.809,1.809,181.898,219.842,207.191
0.206,18.551,1.834,1.834,181.770,219.870,207.245
0.207,18.685,1.866,1.866,181.645,219.894,207.290
0.209,18.808,1.899,1.899,181.528,219.912,207.322
0.210,18.918,1.931,1.931,181.420,219.922,207.338
0.211,19.013,1.956,1.956,181.324,219.923,207.338
0.213,19.098,1.971,1.971,181.242,219.915,207.320
0.214,19.177,1.975,1.975,181.171,219.901,207.288
0.216,19.256,1.969,1.969,181.110,219.882,207.242
0.217,19.337,1.955,1.955,181.056,219.859,207.185
0.218,19.421,1.935,1.935,181.009,219.836,207.120
0.220,19.508,1.911,1.911,180.966,219.815,207.048
0.221,19.596,1.885,1.885,180.926,219.796,206.972
0.223,19.684,1.858,1.858,180.888,219.783,206.893
0.224,19.773,1.833,1.833,180.848,219.777,206.814
0.226,19.860,1.809,1.809,180.807,219.780,206.737
0.227,19.947,1.785,1.785,180.761,219.794,206.664
0.228,20.036,1.763,1.763,180.710,219.822,206.597
0.230,20.128,1.741,1.741,180.652,219.863,206.538
0.231,20.227,1.719,1.719,180.587,219.916,206.485
0.233,20.332,1.698,1.698,180.516,219.977,206.438
0.234,20.443,1.678,1.678,180.439,220.045,206.395
0.235,20.560,1.658,1.658,180.356,220.115,206.356
0.237,20.680,1.640,1.640,180.267,220.187,206.319
0.238,20.802,1.623,1.623,180.173,220.256,206.282
0.240,20.926,1.609,1.609,180.074,220.321,206.246
0.241,21.050,1.598,1.598,179.970,220.378,206.209
0.243,21.175,1.589,1.589,179.861,220.424,206.169
0.244,21.300,1.584,1.584,179.748,220.458,206.126
0.245,21.428,1.584,1.584,179.631,220.476,206.079
0.247,21.559,1.588,1.588,179.511,220.476,206.027
0.248,21.697,1.598,1.598,179.386,220.459,205.969
0.250,21.841,1.614,1.614,179.259,220.427,205.909
0.251,21.991,1.637,1.637,179.130,220.384,205.847
0.252,22.146,1.667,1.667,178.999,220.330,205.784
0.254,22.305,1.704,1.704,178.866,220.269,205.722
0.255,22.466,1.746,1.746,178.732,220.203,205.662
0.257,22.627,1.790,1.790,178.598,220.134,205.605
0.258,22.787,1.833,1.833,178.464,220.065,205.552
0.260,22.944,1.872,1.872,178.330,219.998,205.506
0.261,23.096,1.903,1.903,178.197,219.934,205.467
0.262,23.243,1.924,1.924,178.065,219.878,205.436
0.264,23.382,1.931,1.931,177.936,219.830,205.415
0.265,23.516,1.928,1.928,177.808,219.792,205.404
0.267,23.644,1.917,1.917,177.683,219.762,205.403
0.268,23.769,1.903,1.903,177.561,219.740,205.411
0.270,23.889,1.890,1.890,177.442,219.725,205.427
0.271,24.008,1.880,1.880,177.327,219.715,205.451
0.272,24.123,1.878,1.878,177.216,219.709,205.482
0.274,24.237,1.887,1.887,177.108,219.706,205.519
0.275,24.349,1.906,1.906,177.006,219.705,205.562
0.277,24.458,1.931,1.931,176.908,219.706,205.611
0.278,24.565,1.960,1.960,176.815,219.706,205.664
0.279,24.669,1.989,1.989,176.727,219.705,205.721
0.281,24.771,2.013,2.013,176.646,219.702,205.781
0.282,24.870,2.031,2.031,176.570,219.697,205.844
0.284,24.966,2.039,2.039,176.499,219.689,205.909
0.285,25.061,2.035,2.035,176.431,219.681,205.976
0.287,25.155,2.024,2.024,176.366,219.675,206.043
0.288,25.248,2.006,2.006,176.303,219.670,206.111
0.289,25.340,1.984,1.984,176.239,219.670,206.178
0.291,25.432,1.960,1.960,176.175,219.674,206.244
0.292,25.525,1.936,1.936,176.109,219.685,206.308
0.294,25.620,1.915,1.915,176.040,219.703,206.370
0.295,25.718,1.897,1.897,175.966,219.731,206.429
0.296,25.822,1.883,1.883,175.887,219.769,206.484
0.298,25.933,1.874,1.874,175.802,219.818,206.535
0.299,26.054,1.869,1.869,175.709,219.881,206.582
0.301,26.185,1.869,1.869,175.609,219.955,206.623
0.302,26.325,1.875,1.875,175.505,220.039,206.660
0.304,26.470,1.886,1.886,175.397,220.131,206.693
0.305,26.619,1.902,1.902,175.288,220.228,206.722
0.306,26.769,1.921,1.921,175.180,220.329,206.748
0.308,26.917,1.944,1.944,175.074,220.431,206.770
0.309,27.062,1.966,1.966,174.972,220.532,206.790
0.311,27.200,1.988,1.988,174.875,220.629,206.807
0.312,27.329,2.008,2.008,174.787,220.722,206.823
0.313,27.447,2.024,2.024,174.707,220.807,206.836
0.315,27.549,2.036,2.036,174.639,220.882,206.848
0.316,27.634,2.043,2.043,174.584,220.946,206.859
0.318,27.702,2.049,2.049,174.542,220.998,206.869
0.319,27.753,2.052,2.052,174.511,221.039,206.877
0.321,27.792,2.055,2.055,174.492,221.072,206.881
0.322,27.821,2.058,2.058,174.481,221.099,206.882
0.323,27.844,2.063,2.063,174.477,221.121,206.877
0.325,27.866,2.070,2.070,174.479,221.141,206.867
0.326,27.893,2.077,2.077,174.485,221.160,206.849
0.328,27.927,2.084,2.084,174.493,221.180,206.824
0.329,27.970,2.089,2.089,174.502,221.204,206.790
0.330,28.023,2.091,2.091,174.511,221.234,206.746
0.332,28.089,2.089,2.089,174.517,221.270,206.691
0.333,28.170,2.081,2.081,174.520,221.316,206.624
0.335,28.268,2.066,2.066,174.518,221.373,206.546
0.336,28.379,2.047,2.047,174.510,221.440,206.456
0.338,28.504,2.026,2.026,174.495,221.517,206.359
0.339,28.640,2.004,2.004,174.473,221.602,206.256
0.340,28.784,1.985,1.985,174.444,221.694,206.149
0.342,28.936,1.970,1.970,174.407,221.794,206.041
0.343,29.093,1.963,1.963,174.362,221.899,205.933
0.345,29.254,1.964,1.964,174.307,222.009,205.829
0.346,29.418,1.975,1.975,174.243,222.124,205.730
0.348,29.584,1.994,1.994,174.169,222.241,205.639
0.349,29.752,2.021,2.021,174.084,222.361,205.557
0.350,29.921,2.054,2.054,173.987,222.481,205.488
0.352,30.093,2.094,2.094,173.880,222.603,205.434
0.353,30.266,2.140,2.140,173.761,222.724,205.393
0.355,30.442,2.191,2.191,173.635,222.843,205.367
0.356,30.620,2.244,2.244,173.504,222.962,205.352
0.357,30.797,2.300,2.300,173.370,223.077,205.349
0.359,30.973,2.356,2.356,173.235,223.190,205.356
0.360,31.145,2.410,2.410,173.103,223.299,205.372
0.362,31.311,2.460,2.460,172.975,223.403,205.395
0.363,31.471,2.505,2.505,172.854,223.502,205.425
0.365,31.620,2.543,2.543,172.743,223.596,205.461
0.366,31.758,2.573,2.573,172.644,223.682,205.502
0.367,31.882,2.599,2.599,172.560,223.762,205.545
0.369,31.990,2.619,2.619,172.493,223.834,205.591
0.370,32.083,2.636,2.636,172.443,223.897,205.638
0.372,32.163,2.650,2.650,172.410,223.954,205.683
0.373,32.232,2.662,2.662,172.391,224.005,205.726
0.374,32.293,2.675,2.675,172.382,224.051,205.764
0.376,32.346,2.687,2.687,172.383,224.094,205.794
0.377,32.393,2.698,2.698,172.391,224.135,205.817
0.379,32.436,2.706,2.706,172.403,224.175,205.828
0.380,32.478,2.711,2.711,172.416,224.215,205.827
0.382,32.524,2.711,2.711,172.430,224.256,205.812
0.383,32.580,2.705,2.705,172.441,224.300,205.780
0.384,32.649,2.693,2.693,172.447,224.348,205.730
0.386,32.737,2.674,2.674,172.446,224.400,205.660
0.387,32.846,2.651,2.651,172.436,224.459,205.568
0.389,32.975,2.626,2.626,172.416,224.522,205.457
0.390,33.121,2.603,2.603,172.390,224.589,205.330
0.391,33.280,2.583,2.583,172.357,224.658,205.191
0.393,33.448,2.569,2.569,172.320,224.729,205.043
0.394,33.622,2.564,2.564,172.278,224.799,204.890
0.396,33.797,2.568,2.568,172.235,224.868,204.735
0.397,33.970,2.579,2.579,172.190,224.934,204.581
0.399,34.137,2.595,2.595,172.146,224.996,204.432
0.400,34.295,2.614,2.614,172.103,225.052,204.291
0.401,34.438,2.633,2.633,172.063,225.102,204.163
0.403,34.564,2.650,2.650,172.027,225.144,204.050
0.404,34.668,2.661,2.661,171.996,225.176,203.955
0.406,34.751,2.667,2.667,171.971,225.198,203.880
0.407,34.814,2.667,2.667,171.952,225.212,203.822
0.409,34.859,2.663,2.663,171.937,225.217,203.779
0.410,34.891,2.657,2.657,171.928,225.214,203.749
0.411,34.912,2.650,2.650,171.923,225.205,203.730
0.413,34.931,2.643,2.643,171.922,225.188,203.720
0.414,34.954,2.637,2.637,171.924,225.167,203.718
0.416,34.981,2.634,2.634,171.930,225.139,203.720
0.417,35.015,2.634,2.634,171.939,225.108,203.725
0.418,35.053,2.634,2.634,171.951,225.072,203.731
0.420,35.094,2.635,2.635,171.966,225.033,203.736
0.421,35.139,2.634,2.634,171.982,224.992,203.737
0.423,35.186,2.632,2.632,172.000,224.949,203.733
0.424,35.235,2.628,2.628,172.019,224.905,203.723
0.426,35.286,2.620,2.620,172.039,224.861,203.706
0.427,35.339,2.609,2.609,172.058,224.819,203.680
0.428,35.395,2.596,2.596,172.077,224.778,203.646
0.430,35.456,2.580,2.580,172.094,224.741,203.600
0.431,35.523,2.563,2.563,172.109,224.709,203.544
0.433,35.598,2.544,2.544,172.122,224.682,203.476
0.434,35.683,2.525,2.525,172.131,224.661,203.394
0.435,35.780,2.506,2.506,172.137,224.648,203.297
0.437,35.892,2.488,2.488,172.138,224.643,203.186
0.438,36.020,2.473,2.473,172.134,224.648,203.058
0.440,36.166,2.463,2.463,172.125,224.664,202.913
0.441,36.328,2.458,2.458,172.110,224.689,202.754
0.443,36.502,2.462,2.462,172.090,224.723,202.584
0.444,36.686,2.475,2.475,172.065,224.764,202.407
0.445,36.874,2.499,2.499,172.037,224.811,202.226
0.447,37.064,2.531,2.531,172.004,224.862,202.047
0.448,37.251,2.569,2.569,171.969,224.918,201.872
0.450,37.431,2.609,2.609,171.931,224.975,201.705
0.451,37.602,2.646,2.646,171.891,225.033,201.550
0.452,37.758,2.678,2.678,171.849,225.090,201.411
0.454,37.897,2.699,2.699,171.805,225.146,201.291
0.455,38.015,2.708,2.708,171.761,225.199,201.195
0.457,38.110,2.703,2.703,171.716,225.248,201.127
0.458,38.185,2.690,2.690,171.672,225.292,201.085
0.460,38.248,2.671,2.671,171.628,225.333,201.068
0.461,38.306,2.653,2.653,171.586,225.373,201.071
0.462,38.365,2.638,2.638,171.546,225.413,201.089
0.464,38.429,2.630,2.630,171.509,225.454,201.121
0.465,38.497,2.635,2.635,171.476,225.498,201.160
0.467,38.568,2.651,2.651,171.446,225.547,201.204
0.468,38.643,2.675,2.675,171.422,225.601,201.248
0.470,38.719,2.703,2.703,171.403,225.662,201.290
0.471,38.798,2.729,2.729,171.390,225.732,201.324
0.472,38.882,2.749,2.749,171.384,225.813,201.347
0.474,38.974,2.758,2.758,171.385,225.905,201.355
0.475,39.080,2.753,2.753,171.395,226.009,201.345
0.477,39.199,2.731,2.731,171.412,226.124,201.319
0.478,39.332,2.696,2.696,171.435,226.249,201.277
0.479,39.478,2.654,2.654,171.465,226.380,201.223
0.481,39.633,2.609,2.609,171.500,226.516,201.157
0.482,39.796,2.565,2.565,171.539,226.656,201.081
0.484,39.965,2.527,2.527,171.583,226.796,200.998
0.485,40.137,2.500,2.500,171.629,226.935,200.908
0.487,40.310,2.486,2.486,171.678,227.071,200.814
0.488,40.481,2.483,2.483,171.729,227.203,200.718
0.489,40.647,2.491,2.491,171.781,227.327,200.620
0.491,40.806,2.505,2.505,171.833,227.442,200.524
0.492,40.955,2.524,2.524,171.885,227.547,200.431
0.494,41.094,2.546,2.546,171.936,227.640,200.341
0.495,41.223,2.569,2.569,171.986,227.723,200.257
0.496,41.341,2.590,2.590,172.034,227.797,200.178
0.498,41.448,2.609,2.609,172.080,227.860,200.105
0.499,41.543,2.625,2.625,172.123,227.916,200.040
0.501,41.627,2.638,2.638,172.163,227.963,199.984
0.502,41.700,2.647,2.647,172.200,228.003,199.936
0.504,41.760,2.652,2.652,172.233,228.036,199.898
0.505,41.808,2.653,2.653,172.262,228.063,199.871
0.506,41.843,2.648,2.648,172.286,228.084,199.856
0.508,41.869,2.640,2.640,172.305,228.101,199.853
0.509,41.890,2.631,2.631,172.319,228.114,199.864
0.511,41.917,2.621,2.621,172.326,228.123,199.888
0.512,41.953,2.613,2.613,172.329,228.132,199.923
0.513,41.999,2.608,2.608,172.326,228.141,199.968
0.515,42.052,2.609,2.609,172.319,228.154,200.019
0.516,42.113,2.617,2.617,172.307,228.172,200.076
0.518,42.179,2.629,2.629,172.292,228.198,200.135
0.519,42.252,2.643,2.643,172.274,228.233,200.196
0.521,42.331,2.657,2.657,172.252,228.280,200.255
0.522,42.417,2.666,2.666,172.227,228.341,200.312
0.523,42.514,2.669,2.669,172.201,228.418,200.363
0.525,42.622,2.662,2.662,172.172,228.513,200.407
0.526,42.746,2.643,2.643,172.142,228.629,200.441
0.528,42.889,2.614,2.614,172.110,228.765,200.464
0.529,43.048,2.579,2.579,172.078,228.921,200.477
0.530,43.222,2.545,2.545,172.045,229.092,200.479
0.532,43.408,2.516,2.516,172.011,229.275,200.472
0.533,43.602,2.496,2.496,171.978,229.465,200.455
0.535,43.801,2.491,2.491,171.944,229.660,200.431
0.536,44.002,2.506,2.506,171.911,229.855,200.399
0.538,44.200,2.539,2.539,171.878,230.047,200.359
0.539,44.394,2.586,2.586,171.846,230.232,200.314
0.540,44.578,2.642,2.642,171.815,230.406,200.263
0.542,44.750,2.702,2.702,171.785,230.566,200.207
0.543,44.906,2.759,2.759,171.757,230.708,200.146
0.545,45.045,2.810,2.810,171.730,230.828,200.082
0.546,45.166,2.849,2.849,171.705,230.926,200.016
0.548,45.273,2.875,2.875,171.683,231.006,199.949
0.549,45.366,2.889,2.889,171.664,231.069,199.884
0.550,45.447,2.896,2.896,171.648,231.118,199.821
0.552,45.517,2.897,2.897,171.636,231.156,199.763
0.553,45.577,2.896,2.896,171.628,231.186,199.712
0.555,45.626,2.895,2.895,171.625,231.211,199.669
0.556,45.665,2.896,2.896,171.626,231.232,199.637
0.557,45.696,2.902,2.902,171.633,231.254,199.616
0.559,45.724,2.910,2.910,171.646,231.278,199.610
0.560,45.760,2.918,2.918,171.665,231.307,199.619
0.562,45.812,2.926,2.926,171.690,231.344,199.645
0.563,45.883,2.932,2.932,171.723,231.390,199.689
0.565,45.970,2.934,2.934,171.760,231.444,199.747
0.566,46.069,2.930,2.930,171.801,231.503,199.814
0.567,46.175,2.919,2.919,171.845,231.566,199.887
0.569,46.282,2.903,2.903,171.889,231.631,199.961
0.570,46.388,2.884,2.884,171.933,231.695,200.032
0.572,46.486,2.863,2.863,171.975,231.756,200.096
0.573,46.573,2.841,2.841,172.014,231.813,200.149
0.574,46.644,2.820,2.820,172.048,231.863,200.186
0.576,46.698,2.802,2.802,172.075,231.905,200.204
0.577,46.735,2.788,2.788,172.095,231.937,200.199
