"T","Distance","Radius","FreeRadius","X","Y","Z"
0.000,0.000,1.192,1.192,232.872,207.811,185.450
0.002,0.153,1.159,1.159,232.977,207.843,185.344
0.004,0.304,1.131,1.131,233.080,207.876,185.239
0.006,0.451,1.114,1.114,233.181,207.912,185.137
0.008,0.593,1.112,1.112,233.276,207.950,185.039
0.010,0.729,1.132,1.132,233.366,207.993,184.946
0.011,0.857,1.177,1.177,233.447,208.042,184.861
0.013,0.976,1.241,1.241,233.519,208.097,184.783
0.015,1.087,1.313,1.313,233.581,208.160,184.715
0.017,1.191,1.383,1.383,233.629,208.232,184.658
0.019,1.291,1.437,1.437,233.664,208.314,184.614
0.021,1.391,1.466,1.466,233.683,208.407,184.583
0.023,1.497,1.467,1.467,233.685,208.512,184.567
0.025,1.615,1.449,1.449,233.669,208.629,184.567
0.027,1.748,1.421,1.421,233.637,208.757,184.581
0.029,1.893,1.392,1.392,233.590,208.892,184.608
0.031,2.050,1.370,1.370,233.531,209.032,184.647
0.033,2.215,1.361,1.361,233.462,209.174,184.695
0.034,2.386,1.364,1.364,233.385,209.316,184.751
0.036,2.561,1.374,1.374,233.301,209.455,184.815
0.038,2.734,1.389,1.389,233.212,209.588,184.883
0.040,2.905,1.404,1.404,233.122,209.714,184.955
0.042,3.068,1.417,1.417,233.031,209.828,185.028
0.044,3.222,1.428,1.428,232.941,209.928,185.103
0.046,3.363,1.436,1.436,232.855,210.013,185.176
0.048,3.490,1.441,1.441,232.774,210.080,185.246
0.050,3.604,1.444,1.444,232.698,210.132,185.314
0.052,3.707,1.446,1.446,232.628,210.169,185.379
0.054,3.800,1.446,1.446,232.562,210.194,185.440
0.056,3.884,1.447,1.447,232.502,210.207,185.498
0.057,3.960,1.449,1.449,232.448,210.212,185.550
0.059,4.029,1.455,1.455,232.399,210.209,185.599
0.061,4.090,1.466,1.466,232.356,210.200,185.641
0.063,4.145,1.481,1.481,232.319,210.186,185.679
0.065,4.192,1.498,1.498,232.287,210.170,185.710
0.067,4.231,1.515,1.515,232.262,210.153,185.735
0.069,4.262,1.529,1.529,232.243,210.137,185.753
0.071,4.286,1.538,1.538,232.229,210.122,185.766
0.073,4.303,1.541,1.541,232.220,210.111,185.774
0.075,4.316,1.537,1.537,232.214,210.102,185.782
0.077,4.326,1.531,1.531,232.211,210.098,185.791
0.079,4.339,1.522,1.522,232.209,210.098,185.804
0.080,4.359,1.514,1.514,232.207,210.104,185.822
0.082,4.389,1.508,1.508,232.204,210.116,185.850
0.084,4.432,1.502,1.502,232.199,210.135,185.888
0.086,4.491,1.495,1.495,232.191,210.161,185.940
0.088,4.568,1.485,1.485,232.179,210.196,186.008
0.090,4.666,1.469,1.469,232.162,210.239,186.095
0.092,4.788,1.445,1.445,232.138,210.292,186.201
0.094,4.932,1.417,1.417,232.108,210.354,186.328
0.096,5.094,1.389,1.389,232.073,210.423,186.471
0.098,5.269,1.368,1.368,232.034,210.497,186.625
0.100,5.454,1.359,1.359,231.992,210.573,186.788
0.102,5.643,1.368,1.368,231.949,210.650,186.954
0.103,5.831,1.397,1.397,231.906,210.726,187.121
0.105,6.015,1.439,1.439,231.863,210.799,187.284
0.107,6.189,1.487,1.487,231.823,210.867,187.440
0.109,6.350,1.532,1.532,231.786,210.928,187.584
0.111,6.493,1.568,1.568,231.754,210.979,187.713
0.113,6.613,1.588,1.588,231.727,211.020,187.823
0.115,6.706,1.596,1.596,231.707,211.047,187.910
0.117,6.774,1.595,1.595,231.694,211.062,187.975
0.119,6.821,1.591,1.591,231.688,211.068,188.021
0.121,6.852,1.589,1.589,231.687,211.066,188.052
0.123,6.873,1.592,1.592,231.691,211.060,188.072
0.125,6.890,1.601,1.601,231.700,211.051,188.083
0.126,6.907,1.614,1.614,231.712,211.043,188.090
0.128,6.925,1.628,1.628,231.728,211.037,188.096
0.130,6.945,1.643,1.643,231.747,211.036,188.104
0.132,6.971,1.656,1.656,231.767,211.043,188.119
0.134,7.007,1.667,1.667,231.789,211.059,188.142
0.136,7.058,1.678,1.678,231.812,211.088,188.178
0.138,7.130,1.688,1.688,231.835,211.132,188.230
0.140,7.220,1.701,1.701,231.858,211.189,188.297
0.142,7.327,1.717,1.717,231.881,211.256,188.375
0.144,7.445,1.738,1.738,231.902,211.332,188.463
0.146,7.571,1.762,1.762,231.922,211.415,188.557
0.148,7.703,1.790,1.790,231.940,211.501,188.655
0.149,7.836,1.820,1.820,231.956,211.589,188.753
0.151,7.966,1.852,1.852,231.970,211.675,188.850
0.153,8.091,1.884,1.884,231.980,211.758,188.942
0.155,8.205,1.916,1.916,231.987,211.835,189.027
0.157,8.307,1.944,1.944,231.991,211.905,189.101
0.159,8.392,1.967,1.967,231.990,211.963,189.163
0.161,8.458,1.982,1.982,231.985,212.009,189.209
0.163,8.506,1.988,1.988,231.976,212.043,189.243
0.165,8.541,1.986,1.986,231.964,212.067,189.265
0.167,8.566,1.980,1.980,231.951,212.081,189.280
0.169,8.584,1.974,1.974,231.937,212.087,189.291
0.170,8.599,1.973,1.973,231.924,212.087,189.298
0.172,8.615,1.981,1.981,231.912,212.081,189.307
0.174,8.633,1.998,1.998,231.902,212.071,189.318
0.176,8.656,2.019,2.019,231.895,212.057,189.335
0.178,8.686,2.039,2.039,231.893,212.043,189.361
0.180,8.726,2.052,2.052,231.896,212.027,189.398
0.182,8.780,2.053,2.053,231.906,212.013,189.449
0.184,8.850,2.039,2.039,231.922,212.001,189.516
0.186,8.934,2.015,2.015,231.944,211.991,189.596
0.188,9.029,1.989,1.989,231.969,211.984,189.687
0.190,9.131,1.967,1.967,231.998,211.981,189.786
0.192,9.239,1.955,1.955,232.027,211.981,189.889
0.193,9.348,1.959,1.959,232.055,211.986,189.995
0.195,9.456,1.976,1.976,232.082,211.996,190.099
0.197,9.561,2.001,2.001,232.104,212.012,190.200
0.199,9.659,2.027,2.027,232.121,212.033,190.295
0.201,9.749,2.048,2.048,232.132,212.061,190.379
0.203,9.829,2.059,2.059,232.134,212.095,190.452
0.205,9.901,2.057,2.057,232.126,212.137,190.510
0.207,9.967,2.047,2.047,232.108,212.186,190.551
0.209,10.035,2.032,2.032,232.081,212.241,190.578
0.211,10.106,2.016,2.016,232.046,212.301,190.595
0.213,10.183,2.002,2.002,232.005,212.365,190.603
0.215,10.264,1.992,1.992,231.959,212.432,190.606
0.216,10.348,1.984,1.984,231.911,212.501,190.607
0.218,10.434,1.978,1.978,231.861,212.571,190.607
0.220,10.519,1.972,1.972,231.812,212.640,190.612
0.222,10.602,1.964,1.964,231.764,212.707,190.622
0.224,10.683,1.953,1.953,231.720,212.772,190.641
0.226,10.762,1.938,1.938,231.680,212.833,190.671
0.228,10.841,1.921,1.921,231.647,212.889,190.717
0.230,10.924,1.901,1.901,231.621,212.940,190.777
0.232,11.014,1.878,1.878,231.597,212.987,190.850
0.234,11.110,1.853,1.853,231.574,213.032,190.931
0.236,11.211,1.826,1.826,231.549,213.075,191.019
0.238,11.315,1.797,1.797,231.518,213.118,191.109
0.239,11.423,1.767,1.767,231.479,213.163,191.200
0.241,11.535,1.737,1.737,231.428,213.210,191.287
0.243,11.650,1.708,1.708,231.363,213.260,191.367
0.245,11.773,1.678,1.678,231.280,213.316,191.438
0.247,11.907,1.647,1.647,231.177,213.379,191.497
0.249,12.057,1.616,1.616,231.051,213.449,191.540
0.251,12.231,1.581,1.581,230.899,213.528,191.564
0.253,12.429,1.544,1.544,230.721,213.616,191.570
0.255,12.649,1.505,1.505,230.524,213.712,191.559
0.257,12.886,1.471,1.471,230.312,213.815,191.534
0.259,13.135,1.450,1.450,230.090,213.923,191.499
0.261,13.391,1.448,1.448,229.865,214.036,191.455
0.262,13.648,1.474,1.474,229.641,214.152,191.405
0.264,13.901,1.532,1.532,229.423,214.269,191.353
0.266,14.145,1.615,1.615,229.216,214.388,191.300
0.268,14.374,1.710,1.710,229.027,214.506,191.249
0.270,14.583,1.804,1.804,228.860,214.623,191.203
0.272,14.767,1.887,1.887,228.720,214.737,191.164
0.274,14.923,1.945,1.945,228.613,214.847,191.136
0.276,15.054,1.980,1.980,228.537,214.952,191.118
0.278,15.167,1.996,1.996,228.489,215.054,191.111
0.280,15.268,2.001,2.001,228.463,215.152,191.114
0.282,15.364,2.001,2.001,228.455,215.246,191.126
0.284,15.457,2.003,2.003,228.460,215.337,191.147
0.285,15.550,2.010,2.010,228.474,215.424,191.177
0.287,15.644,2.020,2.020,228.492,215.508,191.215
0.289,15.739,2.028,2.028,228.510,215.590,191.261
0.291,15.835,2.033,2.033,228.522,215.668,191.314
0.293,15.932,2.030,2.030,228.524,215.744,191.373
0.295,16.031,2.020,2.020,228.513,215.818,191.440
0.297,16.137,2.003,2.003,228.482,215.890,191.512
0.299,16.251,1.984,1.984,228.434,215.959,191.588
0.301,16.374,1.967,1.967,228.371,216.025,191.669
0.303,16.503,1.955,1.955,228.295,216.088,191.752
0.305,16.637,1.951,1.951,228.209,216.148,191.837
0.307,16.775,1.956,1.956,228.117,216.204,191.922
0.308,16.913,1.967,1.967,228.019,216.255,192.006
0.310,17.050,1.983,1.983,227.921,216.302,192.089
0.312,17.183,2.002,2.002,227.823,216.344,192.168
0.314,17.308,2.023,2.023,227.729,216.381,192.243
0.316,17.424,2.044,2.044,227.641,216.411,192.312
0.318,17.528,2.063,2.063,227.563,216.436,192.375
0.320,17.617,2.080,2.080,227.496,216.454,192.431
0.322,17.692,2.093,2.093,227.440,216.467,192.480
0.324,17.756,2.100,2.100,227.393,216.474,192.522
0.326,17.812,2.102,2.102,227.352,216.478,192.560
0.328,17.860,2.101,2.101,227.318,216.478,192.594
0.330,17.904,2.100,2.100,227.287,216.475,192.624
0.331,17.944,2.104,2.104,227.258,216.470,192.653
0.333,17.984,2.114,2.114,227.229,216.464,192.680
0.335,18.025,2.132,2.132,227.200,216.458,192.707
0.337,18.068,2.154,2.154,227.167,216.453,192.735
0.339,18.116,2.172,2.172,227.129,216.449,192.765
0.341,18.171,2.181,2.181,227.085,216.447,192.797
0.343,18.233,2.172,2.172,227.034,216.448,192.832
0.345,18.302,2.142,2.142,226.976,216.453,192.868
0.347,18.375,2.095,2.095,226.912,216.464,192.902
0.349,18.450,2.044,2.044,226.845,216.481,192.930
0.351,18.527,2.001,2.001,226.774,216.507,192.950
0.352,18.608,1.979,1.979,226.703,216.543,192.960
0.354,18.693,1.988,1.988,226.631,216.589,192.955
0.356,18.787,2.030,2.030,226.560,216.647,192.934
0.358,18.894,2.087,2.087,226.492,216.719,192.893
0.360,19.019,2.144,2.144,226.428,216.806,192.830
0.362,19.167,2.184,2.184,226.370,216.908,192.741
0.364,19.343,2.192,2.192,226.317,217.029,192.624
0.366,19.548,2.161,2.161,226.272,217.166,192.478
0.368,19.779,2.103,2.103,226.234,217.317,192.307
0.370,20.030,2.038,2.038,226.203,217.477,192.117
0.372,20.294,1.981,1.981,226.177,217.642,191.913
0.374,20.564,1.950,1.950,226.156,217.807,191.700
0.375,20.836,1.959,1.959,226.140,217.969,191.482
0.377,21.102,1.999,1.999,226.128,218.123,191.266
0.379,21.355,2.057,2.057,226.120,218.265,191.056
0.381,21.590,2.119,2.119,226.114,218.390,190.858
0.383,21.799,2.170,2.170,226.111,218.494,190.676
0.385,21.978,2.196,2.196,226.109,218.573,190.516
0.387,22.120,2.198,2.198,226.109,218.623,190.382
0.389,22.227,2.184,2.184,226.109,218.643,190.278
0.391,22.307,2.162,2.162,226.107,218.640,190.198
0.393,22.369,2.140,2.140,226.101,218.618,190.140
0.395,22.422,2.126,2.126,226.088,218.586,190.099
0.397,22.473,2.125,2.125,226.068,218.549,190.072
0.398,22.523,2.132,2.132,226.038,218.514,190.054
0.400,22.575,2.143,2.143,225.995,218.486,190.042
0.402,22.634,2.152,2.152,225.938,218.474,190.031
0.404,22.709,2.156,2.156,225.864,218.482,190.018
0.406,22.810,2.152,2.152,225.772,218.518,190.000
0.408,22.945,2.143,2.143,225.660,218.587,189.971
0.410,23.124,2.136,2.136,225.525,218.696,189.928
0.412,23.348,2.135,2.135,225.368,218.845,189.869
0.414,23.610,2.147,2.147,225.194,219.026,189.794
0.416,23.902,2.175,2.175,225.007,219.232,189.704
0.418,24.218,2.222,2.222,224.811,219.455,189.598
0.420,24.548,2.291,2.291,224.610,219.687,189.477
0.421,24.885,2.382,2.382,224.408,219.920,189.340
0.423,25.222,2.499,2.499,224.211,220.146,189.188
0.425,25.552,2.641,2.641,224.022,220.359,189.020
0.427,25.869,2.802,2.802,223.845,220.549,188.838
0.429,26.170,2.962,2.962,223.684,220.710,188.641
0.431,26.451,3.107,3.107,223.545,220.834,188.430
0.433,26.717,3.218,3.218,223.430,220.912,188.204
0.435,26.973,3.278,3.278,223.341,220.946,187.966
0.437,27.227,3.283,3.283,223.276,220.943,187.721
0.439,27.481,3.249,3.249,223.230,220.908,187.473
0.441,27.736,3.199,3.199,223.204,220.848,187.226
0.443,27.990,3.151,3.151,223.193,220.770,186.986
0.444,28.237,3.125,3.125,223.195,220.680,186.755
0.446,28.472,3.137,3.137,223.208,220.585,186.540
0.448,28.691,3.177,3.177,223.230,220.491,186.344
0.450,28.885,3.233,3.233,223.259,220.405,186.172
0.452,29.049,3.290,3.290,223.290,220.334,186.029
0.454,29.175,3.335,3.335,223.324,220.284,185.917
0.456,29.259,3.354,3.354,223.356,220.261,185.843
0.458,29.310,3.351,3.351,223.386,220.264,185.802
0.460,29.348,3.335,3.335,223.412,220.288,185.789
0.462,29.394,3.315,3.315,223.434,220.328,185.797
0.464,29.453,3.301,3.301,223.450,220.379,185.820
0.466,29.520,3.303,3.303,223.460,220.437,185.852
0.467,29.589,3.321,3.321,223.463,220.497,185.886
0.469,29.653,3.351,3.351,223.457,220.554,185.916
0.471,29.708,3.383,3.383,223.441,220.603,185.936
0.473,29.753,3.412,3.412,223.415,220.639,185.939
0.475,29.799,3.430,3.430,223.377,220.658,185.920
0.477,29.869,3.433,3.433,223.327,220.654,185.871
0.479,29.977,3.425,3.425,223.264,220.624,185.789
0.481,30.124,3.411,3.411,223.189,220.570,185.675
0.483,30.304,3.397,3.397,223.105,220.495,185.535
0.485,30.510,3.387,3.387,223.014,220.403,185.375
0.487,30.736,3.386,3.386,222.917,220.298,185.200
0.489,30.974,3.392,3.392,222.819,220.183,185.016
0.490,31.217,3.400,3.400,222.719,220.064,184.828
0.492,31.460,3.409,3.409,222.622,219.942,184.642
0.494,31.693,3.413,3.413,222.529,219.823,184.464
0.496,31.911,3.409,3.409,222.442,219.711,184.299
0.498,32.106,3.398,3.398,222.364,219.608,184.152
0.500,32.272,3.382,3.382,222.298,219.519,184.030
0.502,32.402,3.362,3.362,222.243,219.447,183.936
0.504,32.499,3.343,3.343,222.201,219.391,183.868
0.506,32.567,3.326,3.326,222.171,219.351,183.824
0.508,32.608,3.314,3.314,222.150,219.326,183.799
0.510,32.627,3.307,3.307,222.138,219.313,183.791
0.511,32.633,3.308,3.308,222.134,219.313,183.795
0.513,32.652,3.319,3.319,222.137,219.324,183.810
0.515,32.682,3.339,3.339,222.145,219.345,183.831
0.517,32.723,3.371,3.371,222.158,219.375,183.855
0.519,32.771,3.406,3.406,222.175,219.413,183.879
0.521,32.823,3.439,3.439,222.194,219.457,183.899
0.523,32.879,3.462,3.462,222.215,219.507,183.913
0.525,32.938,3.467,3.467,222.235,219.562,183.917
0.527,32.999,3.450,3.450,222.253,219.621,183.913
0.529,33.063,3.418,3.418,222.266,219.682,183.901
0.531,33.129,3.383,3.383,222.270,219.745,183.882
0.533,33.199,3.358,3.358,222.263,219.810,183.858
0.534,33.273,3.356,3.356,222.242,219.875,183.828
0.536,33.355,3.389,3.389,222.205,219.940,183.795
0.538,33.447,3.451,3.451,222.148,220.003,183.758
0.540,33.555,3.526,3.526,222.069,220.064,183.719
0.542,33.680,3.595,3.595,221.965,220.123,183.680
0.544,33.828,3.637,3.637,221.834,220.177,183.640
0.546,34.002,3.636,3.636,221.671,220.227,183.600
0.548,34.204,3.585,3.585,221.479,220.271,183.562
0.550,34.428,3.501,3.501,221.261,220.311,183.526
0.552,34.670,3.404,3.404,221.024,220.347,183.491
0.554,34.924,3.314,3.314,220.774,220.379,183.457
0.556,35.186,3.251,3.251,220.516,220.407,183.425
0.557,35.448,3.227,3.227,220.257,220.432,183.395
0.559,35.706,3.234,3.234,220.002,220.454,183.366
0.561,35.953,3.254,3.254,219.756,220.474,183.339
0.563,36.185,3.273,3.273,219.527,220.492,183.313
0.565,36.394,3.274,3.274,219.320,220.509,183.289
0.567,36.576,3.243,3.243,219.140,220.525,183.267
0.569,36.724,3.183,3.183,218.994,220.540,183.246
0.571,36.838,3.108,3.108,218.883,220.554,183.227
0.573,36.921,3.032,3.032,218.803,220.567,183.209
0.575,36.978,2.968,2.968,218.750,220.580,183.191
0.577,37.014,2.930,2.930,218.720,220.591,183.174
0.579,37.037,2.922,2.922,218.709,220.600,183.157
0.580,37.056,2.936,2.936,218.712,220.607,183.139
0.582,37.080,2.965,2.966,218.726,220.611,183.120
0.584,37.109,3.003,3.003,218.745,220.613,183.099
0.586,37.140,3.041,3.041,218.767,220.612,183.077
0.588,37.172,3.075,3.074,218.787,220.608,183.052
0.590,37.204,3.103,3.101,218.800,220.600,183.025
0.592,37.237,3.124,3.122,218.803,220.588,182.994
0.594,37.275,3.140,3.138,218.794,220.572,182.960
0.596,37.320,3.148,3.148,218.774,220.555,182.923
0.598,37.373,3.149,3.152,218.743,220.537,182.884
0.600,37.434,3.144,3.150,218.702,220.519,182.843
0.602,37.502,3.133,3.143,218.651,220.503,182.801
0.603,37.577,3.119,3.132,218.591,220.490,182.758
0.605,37.659,3.102,3.116,218.523,220.482,182.714
0.607,37.747,3.083,3.097,218.446,220.479,182.670
0.609,37.842,3.062,3.074,218.363,220.483,182.626
0.611,37.942,3.040,3.049,218.272,220.496,182.583
0.613,38.050,3.015,3.020,218.176,220.518,182.542
0.615,38.164,2.987,2.989,218.074,220.551,182.502
0.617,38.286,2.956,2.955,217.967,220.595,182.463
0.619,38.415,2.922,2.920,217.855,220.647,182.425
0.621,38.552,2.888,2.887,217.739,220.709,182.387
0.623,38.695,2.859,2.858,217.620,220.777,182.348
0.625,38.845,2.837,2.837,217.496,220.851,182.307
0.626,39.000,2.825,2.825,217.370,220.931,182.265
0.628,39.160,2.826,2.825,217.240,221.014,182.220
0.630,39.324,2.835,2.834,217.109,221.100,182.172
0.632,39.492,2.848,2.847,216.975,221.187,182.119
0.634,39.663,2.861,2.860,216.840,221.275,182.062
0.636,39.837,2.869,2.869,216.704,221.362,182.000
0.638,40.012,2.870,2.872,216.567,221.448,181.931
0.640,40.189,2.866,2.870,216.430,221.530,181.857
0.642,40.364,2.863,2.869,216.295,221.610,181.776
0.644,40.539,2.867,2.873,216.164,221.686,181.691
0.646,40.710,2.885,2.887,216.037,221.757,181.600
0.648,40.878,2.921,2.917,215.917,221.824,181.504
0.649,41.041,2.974,2.960,215.804,221.884,181.403
0.651,41.199,3.033,3.013,215.700,221.938,181.297
0.653,41.351,3.091,3.069,215.606,221.985,181.187
0.655,41.496,3.136,3.122,215.524,222.024,181.073
0.657,41.636,3.160,3.168,215.456,222.055,180.955
0.659,41.771,3.160,3.202,215.402,222.077,180.834
0.661,41.902,3.141,3.226,215.364,222.089,180.709
0.663,42.032,3.113,3.239,215.341,222.093,180.581
0.665,42.162,3.083,3.243,215.330,222.090,180.452
0.667,42.293,3.060,3.238,215.331,222.080,180.321
0.669,42.425,3.050,3.226,215.341,222.065,180.191
0.670,42.557,3.051,3.207,215.358,222.046,180.060
0.672,42.690,3.057,3.183,215.382,222.024,179.932
0.674,42.822,3.063,3.155,215.409,222.000,179.805
0.676,42.952,3.066,3.124,215.440,221.975,179.681
0.678,43.078,3.060,3.093,215.470,221.951,179.561
0.680,43.199,3.046,3.062,215.500,221.929,179.446
0.682,43.314,3.026,3.033,215.528,221.909,179.336
0.684,43.422,3.005,3.006,215.551,221.893,179.232
0.686,43.522,2.984,2.984,215.570,221.881,179.134
0.688,43.615,2.967,2.967,215.584,221.874,179.043
0.690,43.700,2.955,2.956,215.595,221.871,178.958
0.692,43.779,2.949,2.951,215.602,221.875,178.880
0.693,43.851,2.952,2.954,215.604,221.884,178.809
0.695,43.917,2.962,2.964,215.603,221.899,178.745
0.697,43.978,2.982,2.981,215.598,221.921,178.688
0.699,44.036,3.010,3.006,215.589,221.950,178.638
0.701,44.094,3.042,3.034,215.576,221.987,178.595
0.703,44.153,3.074,3.064,215.560,222.031,178.561
0.705,44.215,3.100,3.092,215.540,222.084,178.534
0.707,44.284,3.115,3.114,215.517,222.146,178.514
0.709,44.359,3.116,3.128,215.492,222.215,178.499
0.711,44.441,3.105,3.136,215.466,222.291,178.486
0.713,44.529,3.088,3.139,215.440,222.374,178.472
0.715,44.622,3.070,3.140,215.416,222.463,178.456
0.716,44.721,3.056,3.140,215.393,222.557,178.435
0.718,44.826,3.051,3.144,215.375,222.656,178.406
0.720,44.937,3.055,3.150,215.361,222.759,178.366
0.722,45.055,3.063,3.157,215.352,222.864,178.313
0.724,45.183,3.073,3.166,215.351,222.973,178.245
0.726,45.323,3.079,3.174,215.358,223.083,178.159
0.728,45.478,3.077,3.181,215.374,223.195,178.053
0.730,45.649,3.069,3.188,215.399,223.306,177.926
0.732,45.834,3.062,3.200,215.433,223.418,177.783
0.734,46.029,3.063,3.219,215.472,223.527,177.626
0.736,46.231,3.079,3.252,215.517,223.634,177.461
0.738,46.436,3.119,3.300,215.565,223.737,177.290
0.739,46.640,3.185,3.367,215.614,223.835,177.118
0.741,46.839,3.267,3.441,215.664,223.927,176.949
0.743,47.028,3.350,3.510,215.713,224.011,176.786
0.745,47.205,3.421,3.563,215.759,224.087,176.634
0.747,47.364,3.468,3.587,215.800,224.154,176.496
0.749,47.501,3.477,3.572,215.836,224.211,176.376
0.751,47.612,3.455,3.526,215.865,224.256,176.278
0.753,47.697,3.414,3.461,215.886,224.290,176.203
0.755,47.759,3.367,3.392,215.901,224.315,176.149
0.757,47.801,3.325,3.332,215.911,224.335,176.113
0.759,47.826,3.301,3.294,215.917,224.350,176.094
0.761,47.842,3.297,3.282,215.920,224.364,176.088
0.762,47.858,3.310,3.291,215.922,224.379,176.095
0.764,47.882,3.334,3.318,215.924,224.396,176.111
0.766,47.915,3.366,3.357,215.926,224.419,176.135
0.768,47.957,3.400,3.404,215.931,224.450,176.164
0.770,48.010,3.432,3.454,215.939,224.491,176.195
0.772,48.074,3.462,3.504,215.951,224.545,176.228
0.774,48.151,3.486,3.548,215.970,224.613,176.260
0.776,48.242,3.504,3.583,215.993,224.695,176.289
0.778,48.344,3.514,3.604,216.021,224.789,176.316
0.780,48.454,3.514,3.608,216.053,224.893,176.341
0.782,48.572,3.508,3.600,216.087,225.003,176.363
