"T","Distance","Radius","FreeRadius","X","Y","Z"
0.000,0.000,1.343,1.343,-81.646,-60.418,-2.241
0.001,0.127,1.426,1.427,-81.691,-60.535,-2.266
0.002,0.254,1.509,1.511,-81.735,-60.650,-2.291
0.003,0.378,1.591,1.594,-81.780,-60.763,-2.319
0.004,0.500,1.672,1.675,-81.825,-60.873,-2.349
0.005,0.619,1.751,1.755,-81.871,-60.977,-2.382
0.006,0.733,1.828,1.832,-81.917,-61.075,-2.419
0.007,0.843,1.903,1.906,-81.963,-61.165,-2.462
0.008,0.949,1.974,1.976,-82.011,-61.247,-2.510
0.010,1.052,2.042,2.043,-82.059,-61.318,-2.565
0.011,1.151,2.106,2.106,-82.108,-61.379,-2.627
0.012,1.250,2.167,2.163,-82.158,-61.427,-2.697
0.013,1.349,2.222,2.217,-82.207,-61.466,-2.774
0.014,1.448,2.274,2.266,-82.253,-61.498,-2.856
0.015,1.546,2.321,2.312,-82.293,-61.526,-2.940
0.016,1.641,2.364,2.353,-82.325,-61.554,-3.026
0.017,1.734,2.402,2.391,-82.348,-61.584,-3.110
0.018,1.823,2.435,2.426,-82.358,-61.620,-3.192
0.019,1.912,2.463,2.457,-82.353,-61.664,-3.269
0.020,2.004,2.486,2.485,-82.332,-61.719,-3.339
0.021,2.106,2.504,2.511,-82.292,-61.789,-3.401
0.022,2.224,2.518,2.533,-82.231,-61.876,-3.452
0.023,2.359,2.527,2.553,-82.152,-61.978,-3.494
0.024,2.508,2.534,2.570,-82.058,-62.089,-3.527
0.025,2.668,2.537,2.584,-81.952,-62.206,-3.552
0.026,2.834,2.538,2.595,-81.838,-62.325,-3.571
0.027,3.001,2.538,2.603,-81.719,-62.441,-3.584
0.029,3.163,2.537,2.608,-81.599,-62.550,-3.593
0.030,3.317,2.536,2.611,-81.481,-62.648,-3.599
0.031,3.456,2.534,2.610,-81.369,-62.731,-3.602
0.032,3.577,2.534,2.607,-81.266,-62.794,-3.604
0.033,3.677,2.534,2.601,-81.175,-62.835,-3.605
0.034,3.758,2.534,2.594,-81.097,-62.856,-3.607
0.035,3.824,2.535,2.585,-81.031,-62.863,-3.607
0.036,3.879,2.535,2.575,-80.976,-62.863,-3.605
0.037,3.923,2.536,2.565,-80.932,-62.861,-3.602
0.038,3.958,2.536,2.555,-80.898,-62.865,-3.595
0.039,3.988,2.536,2.545,-80.873,-62.879,-3.586
0.040,4.026,2.535,2.537,-80.857,-62.911,-3.572
0.041,4.084,2.534,2.529,-80.850,-62.965,-3.554
0.042,4.171,2.531,2.523,-80.850,-63.049,-3.532
0.043,4.293,2.528,2.518,-80.857,-63.168,-3.503
0.044,4.448,2.524,2.513,-80.869,-63.319,-3.471
0.045,4.629,2.518,2.509,-80.887,-63.495,-3.435
0.047,4.829,2.511,2.503,-80.908,-63.691,-3.398
0.048,5.042,2.503,2.497,-80.931,-63.899,-3.361
0.049,5.260,2.494,2.490,-80.955,-64.114,-3.326
0.050,5.478,2.482,2.481,-80.980,-64.327,-3.294
0.051,5.688,2.469,2.469,-81.003,-64.534,-3.267
0.052,5.884,2.454,2.456,-81.024,-64.728,-3.246
0.053,6.058,2.438,2.440,-81.042,-64.901,-3.233
0.054,6.207,2.420,2.423,-81.054,-65.049,-3.230
0.055,6.328,2.402,2.405,-81.063,-65.170,-3.235
0.056,6.427,2.383,2.386,-81.068,-65.268,-3.249
0.057,6.508,2.365,2.366,-81.071,-65.346,-3.269
0.058,6.576,2.346,2.347,-81.073,-65.409,-3.294
0.059,6.633,2.328,2.329,-81.075,-65.458,-3.324
0.060,6.684,2.311,2.311,-81.077,-65.498,-3.356
0.061,6.732,2.295,2.295,-81.081,-65.531,-3.389
0.062,6.777,2.280,2.280,-81.089,-65.561,-3.423
0.063,6.824,2.267,2.266,-81.100,-65.592,-3.455
0.064,6.872,2.254,2.254,-81.116,-65.627,-3.485
0.066,6.924,2.243,2.243,-81.138,-65.666,-3.512
0.067,6.978,2.233,2.233,-81.163,-65.707,-3.536
0.068,7.034,2.223,2.223,-81.192,-65.750,-3.556
0.069,7.090,2.215,2.215,-81.224,-65.793,-3.573
0.070,7.146,2.207,2.207,-81.259,-65.835,-3.587
0.071,7.199,2.200,2.200,-81.294,-65.874,-3.597
0.072,7.250,2.193,2.193,-81.331,-65.909,-3.604
0.073,7.297,2.186,2.186,-81.367,-65.938,-3.606
0.074,7.339,2.179,2.178,-81.403,-65.960,-3.605
0.075,7.377,2.171,2.170,-81.437,-65.975,-3.600
0.076,7.412,2.161,2.160,-81.471,-65.981,-3.592
0.077,7.446,2.150,2.148,-81.504,-65.983,-3.583
0.078,7.482,2.136,2.134,-81.538,-65.982,-3.574
0.079,7.518,2.118,2.117,-81.574,-65.981,-3.567
0.080,7.557,2.098,2.097,-81.612,-65.982,-3.565
0.081,7.600,2.073,2.074,-81.655,-65.988,-3.568
0.082,7.650,2.044,2.047,-81.702,-66.001,-3.579
0.084,7.711,2.013,2.017,-81.755,-66.023,-3.600
0.085,7.787,1.980,1.986,-81.815,-66.058,-3.631
0.086,7.881,1.946,1.953,-81.882,-66.106,-3.676
0.087,7.995,1.912,1.920,-81.957,-66.170,-3.733
0.088,8.124,1.880,1.888,-82.039,-66.245,-3.799
0.089,8.266,1.850,1.856,-82.126,-66.330,-3.873
0.090,8.417,1.823,1.827,-82.216,-66.421,-3.951
0.091,8.573,1.800,1.800,-82.310,-66.518,-4.030
0.092,8.731,1.782,1.776,-82.405,-66.617,-4.108
0.093,8.886,1.768,1.756,-82.501,-66.715,-4.181
0.094,9.036,1.756,1.738,-82.596,-66.811,-4.247
0.095,9.178,1.747,1.723,-82.689,-66.901,-4.304
0.096,9.308,1.739,1.711,-82.779,-66.984,-4.348
0.097,9.426,1.730,1.700,-82.865,-67.058,-4.379
0.098,9.535,1.719,1.692,-82.948,-67.126,-4.398
0.099,9.636,1.706,1.685,-83.027,-67.189,-4.407
0.100,9.733,1.689,1.680,-83.103,-67.249,-4.407
0.101,9.827,1.667,1.676,-83.176,-67.308,-4.402
0.103,9.919,1.641,1.673,-83.246,-67.368,-4.391
0.104,10.012,1.611,1.670,-83.314,-67.429,-4.378
0.105,10.105,1.578,1.668,-83.378,-67.495,-4.363
0.106,10.201,1.544,1.666,-83.441,-67.567,-4.349
0.107,10.302,1.511,1.664,-83.501,-67.646,-4.337
0.108,10.407,1.479,1.662,-83.559,-67.733,-4.327
0.109,10.517,1.450,1.659,-83.616,-67.828,-4.320
0.110,10.632,1.425,1.655,-83.669,-67.928,-4.313
0.111,10.749,1.406,1.649,-83.721,-68.034,-4.305
0.112,10.869,1.393,1.643,-83.770,-68.142,-4.296
0.113,10.990,1.385,1.635,-83.816,-68.253,-4.284
0.114,11.111,1.382,1.624,-83.860,-68.366,-4.268
0.115,11.233,1.381,1.611,-83.901,-68.478,-4.246
0.116,11.354,1.381,1.594,-83.940,-68.589,-4.219
0.117,11.473,1.380,1.574,-83.975,-68.698,-4.184
0.118,11.592,1.377,1.550,-84.008,-68.804,-4.142
0.119,11.709,1.371,1.521,-84.037,-68.908,-4.096
0.121,11.826,1.360,1.488,-84.063,-69.012,-4.049
0.122,11.942,1.342,1.449,-84.086,-69.116,-4.004
0.123,12.057,1.318,1.406,-84.105,-69.223,-3.966
0.124,12.172,1.289,1.359,-84.120,-69.333,-3.935
0.125,12.289,1.256,1.311,-84.132,-69.447,-3.917
0.126,12.409,1.222,1.264,-84.139,-69.567,-3.915
0.127,12.537,1.189,1.219,-84.143,-69.694,-3.930
0.128,12.677,1.158,1.178,-84.143,-69.830,-3.968
0.129,12.832,1.132,1.144,-84.138,-69.972,-4.028
0.130,13.000,1.112,1.118,-84.128,-70.119,-4.109
0.131,13.176,1.100,1.101,-84.115,-70.264,-4.207
0.132,13.356,1.098,1.096,-84.096,-70.404,-4.320
0.133,13.537,1.105,1.102,-84.073,-70.533,-4.443
0.134,13.714,1.119,1.115,-84.044,-70.648,-4.575
0.135,13.884,1.137,1.135,-84.011,-70.744,-4.712
0.136,14.045,1.158,1.157,-83.973,-70.816,-4.851
0.137,14.196,1.179,1.180,-83.929,-70.859,-4.989
0.138,14.339,1.198,1.202,-83.880,-70.870,-5.123
0.140,14.479,1.214,1.220,-83.826,-70.847,-5.250
0.141,14.623,1.224,1.232,-83.770,-70.795,-5.371
0.142,14.770,1.226,1.235,-83.713,-70.721,-5.486
0.143,14.920,1.219,1.228,-83.658,-70.634,-5.595
0.144,15.069,1.204,1.214,-83.608,-70.539,-5.698
0.145,15.211,1.184,1.193,-83.565,-70.445,-5.796
0.146,15.343,1.161,1.169,-83.532,-70.357,-5.888
0.147,15.460,1.136,1.142,-83.510,-70.283,-5.976
0.148,15.558,1.111,1.116,-83.502,-70.230,-6.059
0.149,15.641,1.089,1.092,-83.511,-70.206,-6.137
0.150,15.720,1.070,1.072,-83.538,-70.213,-6.211
0.151,15.809,1.058,1.058,-83.579,-70.249,-6.282
0.152,15.911,1.053,1.052,-83.629,-70.306,-6.350
0.153,16.024,1.055,1.054,-83.684,-70.379,-6.416
0.154,16.144,1.064,1.062,-83.741,-70.462,-6.482
0.155,16.265,1.076,1.074,-83.793,-70.549,-6.547
0.156,16.382,1.091,1.089,-83.839,-70.635,-6.613
0.158,16.490,1.107,1.105,-83.871,-70.712,-6.680
0.159,16.585,1.122,1.121,-83.888,-70.776,-6.749
0.160,16.670,1.134,1.133,-83.883,-70.820,-6.822
0.161,16.754,1.142,1.142,-83.855,-70.840,-6.898
0.162,16.847,1.145,1.145,-83.806,-70.839,-6.977
0.163,16.954,1.140,1.140,-83.740,-70.820,-7.059
0.164,17.074,1.130,1.131,-83.660,-70.788,-7.142
0.165,17.204,1.116,1.116,-83.570,-70.748,-7.227
0.166,17.340,1.099,1.099,-83.474,-70.702,-7.312
0.167,17.478,1.081,1.081,-83.376,-70.655,-7.396
0.168,17.613,1.062,1.063,-83.280,-70.610,-7.480
0.169,17.741,1.046,1.046,-83.189,-70.573,-7.563
0.170,17.859,1.032,1.032,-83.107,-70.547,-7.643
0.171,17.963,1.023,1.023,-83.037,-70.534,-7.720
0.172,18.058,1.019,1.019,-82.979,-70.536,-7.795
0.173,18.146,1.021,1.021,-82.931,-70.549,-7.867
0.174,18.230,1.028,1.028,-82.891,-70.573,-7.937
0.175,18.313,1.039,1.039,-82.857,-70.607,-8.005
0.177,18.396,1.052,1.052,-82.829,-70.648,-8.071
0.178,18.480,1.067,1.067,-82.804,-70.695,-8.136
0.179,18.565,1.081,1.081,-82.780,-70.747,-8.199
0.180,18.652,1.095,1.095,-82.757,-70.802,-8.261
0.181,18.739,1.107,1.107,-82.733,-70.860,-8.323
0.182,18.827,1.116,1.116,-82.706,-70.918,-8.383
0.183,18.914,1.121,1.121,-82.680,-70.977,-8.441
0.184,18.998,1.123,1.123,-82.658,-71.039,-8.494
0.185,19.080,1.125,1.125,-82.644,-71.105,-8.539
0.186,19.159,1.128,1.128,-82.642,-71.176,-8.575
0.187,19.242,1.135,1.135,-82.657,-71.254,-8.599
0.188,19.334,1.146,1.146,-82.692,-71.339,-8.609
0.189,19.445,1.164,1.164,-82.751,-71.432,-8.603
0.190,19.583,1.190,1.190,-82.838,-71.536,-8.578
0.191,19.755,1.228,1.228,-82.957,-71.651,-8.532
0.192,19.966,1.277,1.277,-83.110,-71.779,-8.464
0.193,20.209,1.338,1.338,-83.291,-71.918,-8.377
0.195,20.473,1.408,1.409,-83.487,-72.065,-8.278
0.196,20.748,1.485,1.485,-83.687,-72.220,-8.173
0.197,21.021,1.564,1.565,-83.881,-72.380,-8.068
0.198,21.281,1.644,1.645,-84.057,-72.544,-7.968
0.199,21.518,1.721,1.722,-84.205,-72.708,-7.881
0.200,21.726,1.793,1.793,-84.311,-72.872,-7.811
0.201,21.902,1.856,1.856,-84.367,-73.034,-7.766
0.202,22.060,1.907,1.907,-84.360,-73.191,-7.751
0.203,22.232,1.945,1.945,-84.281,-73.341,-7.772
0.204,22.443,1.970,1.969,-84.136,-73.485,-7.825
0.205,22.697,1.984,1.983,-83.938,-73.623,-7.905
0.206,22.987,1.990,1.988,-83.700,-73.754,-8.006
0.207,23.303,1.990,1.988,-83.434,-73.880,-8.121
0.208,23.632,1.986,1.984,-83.154,-74.001,-8.246
0.209,23.962,1.981,1.978,-82.872,-74.116,-8.373
0.210,24.280,1.976,1.974,-82.601,-74.226,-8.497
0.211,24.571,1.974,1.973,-82.355,-74.332,-8.612
0.212,24.824,1.977,1.977,-82.146,-74.433,-8.711
0.214,25.028,1.986,1.988,-81.985,-74.531,-8.790
0.215,25.185,1.999,2.003,-81.874,-74.624,-8.850
0.216,25.306,2.016,2.022,-81.807,-74.713,-8.898
0.217,25.404,2.035,2.042,-81.776,-74.796,-8.939
0.218,25.492,2.053,2.061,-81.778,-74.875,-8.978
0.219,25.581,2.070,2.079,-81.805,-74.947,-9.023
0.220,25.680,2.085,2.092,-81.853,-75.013,-9.079
0.221,25.792,2.095,2.100,-81.914,-75.072,-9.151
0.222,25.921,2.099,2.100,-81.984,-75.125,-9.247
0.223,26.071,2.096,2.092,-82.056,-75.169,-9.370
0.224,26.247,2.087,2.076,-82.125,-75.206,-9.528
0.225,26.448,2.072,2.053,-82.186,-75.236,-9.717
0.226,26.668,2.052,2.027,-82.237,-75.261,-9.930
0.227,26.899,2.029,1.999,-82.274,-75.283,-10.157
0.228,27.135,2.003,1.971,-82.294,-75.304,-10.391
0.229,27.370,1.976,1.946,-82.295,-75.326,-10.625
0.230,27.597,1.948,1.924,-82.273,-75.351,-10.849
0.232,27.811,1.921,1.908,-82.226,-75.380,-11.056
0.233,28.012,1.897,1.901,-82.149,-75.417,-11.238
0.234,28.201,1.874,1.903,-82.041,-75.461,-11.387
0.235,28.389,1.855,1.912,-81.898,-75.516,-11.495
0.236,28.586,1.840,1.928,-81.724,-75.581,-11.562
0.237,28.801,1.828,1.948,-81.525,-75.654,-11.594
0.238,29.030,1.821,1.972,-81.309,-75.733,-11.598
0.239,29.271,1.818,1.997,-81.084,-75.814,-11.578
0.240,29.516,1.821,2.023,-80.856,-75.898,-11.542
0.241,29.759,1.828,2.047,-80.633,-75.980,-11.495
0.242,29.989,1.842,2.068,-80.423,-76.059,-11.443
0.243,30.200,1.861,2.085,-80.232,-76.134,-11.393
0.244,30.382,1.885,2.097,-80.068,-76.200,-11.350
0.245,30.527,1.913,2.105,-79.939,-76.258,-11.321
0.246,30.633,1.943,2.109,-79.845,-76.305,-11.307
0.247,30.707,1.973,2.109,-79.781,-76.344,-11.306
0.248,30.756,2.002,2.106,-79.745,-76.375,-11.317
0.249,30.791,2.027,2.100,-79.731,-76.400,-11.337
0.251,30.826,2.048,2.091,-79.735,-76.420,-11.366
0.252,30.868,2.062,2.080,-79.752,-76.436,-11.400
0.253,30.916,2.069,2.067,-79.778,-76.449,-11.439
0.254,30.969,2.067,2.053,-79.809,-76.460,-11.479
0.255,31.022,2.058,2.038,-79.840,-76.472,-11.521
0.256,31.071,2.043,2.024,-79.867,-76.484,-11.560
0.257,31.116,2.026,2.011,-79.888,-76.498,-11.597
0.258,31.155,2.008,2.000,-79.903,-76.513,-11.631
0.259,31.190,1.991,1.992,-79.913,-76.528,-11.660
0.260,31.219,1.977,1.988,-79.918,-76.543,-11.684
0.261,31.242,1.969,1.989,-79.919,-76.557,-11.703
0.262,31.261,1.968,1.996,-79.917,-76.571,-11.715
0.263,31.275,1.977,2.010,-79.913,-76.582,-11.721
0.264,31.287,1.994,2.029,-79.905,-76.592,-11.718
0.265,31.303,2.017,2.052,-79.897,-76.600,-11.707
0.266,31.325,2.042,2.075,-79.887,-76.605,-11.688
0.267,31.355,2.067,2.095,-79.877,-76.606,-11.660
0.268,31.385,2.088,2.111,-79.867,-76.607,-11.631
0.270,31.413,2.102,2.119,-79.857,-76.606,-11.605
0.271,31.432,2.107,2.118,-79.849,-76.606,-11.588
0.272,31.439,2.098,2.103,-79.843,-76.608,-11.585
0.273,31.456,2.073,2.073,-79.840,-76.612,-11.600
0.274,31.497,2.031,2.027,-79.839,-76.620,-11.641
0.275,31.569,1.972,1.966,-79.842,-76.633,-11.711
0.276,31.676,1.903,1.895,-79.850,-76.652,-11.817
0.277,31.825,1.825,1.818,-79.862,-76.678,-11.963
0.278,32.015,1.743,1.738,-79.880,-76.711,-12.149
0.279,32.240,1.661,1.660,-79.901,-76.750,-12.369
0.280,32.490,1.582,1.587,-79.925,-76.795,-12.614
0.281,32.757,1.511,1.524,-79.952,-76.844,-12.875
0.282,33.032,1.450,1.474,-79.980,-76.896,-13.144
0.283,33.309,1.405,1.441,-80.007,-76.950,-13.414
0.284,33.578,1.375,1.426,-80.034,-77.006,-13.676
0.285,33.831,1.358,1.426,-80.060,-77.062,-13.921
0.286,34.059,1.353,1.437,-80.082,-77.117,-14.142
0.288,34.256,1.358,1.457,-80.101,-77.170,-14.330
0.289,34.416,1.369,1.483,-80.116,-77.221,-14.481
0.290,34.543,1.386,1.511,-80.127,-77.268,-14.599
0.291,34.643,1.405,1.539,-80.133,-77.313,-14.687
0.292,34.718,1.424,1.563,-80.136,-77.356,-14.750
0.293,34.775,1.442,1.580,-80.136,-77.394,-14.791
0.294,34.818,1.456,1.588,-80.132,-77.430,-14.815
0.295,34.853,1.466,1.587,-80.125,-77.463,-14.826
0.296,34.884,1.474,1.579,-80.114,-77.491,-14.827
0.297,34.912,1.479,1.567,-80.101,-77.517,-14.824
0.298,34.940,1.482,1.551,-80.086,-77.538,-14.819
0.299,34.965,1.485,1.534,-80.068,-77.557,-14.816
0.300,34.990,1.487,1.519,-80.049,-77.572,-14.819
0.301,35.015,1.489,1.505,-80.030,-77.585,-14.829
0.302,35.044,1.491,1.496,-80.012,-77.598,-14.848
0.303,35.080,1.496,1.494,-79.997,-77.610,-14.879
0.304,35.129,1.502,1.499,-79.987,-77.623,-14.924
0.305,35.192,1.510,1.510,-79.981,-77.638,-14.986
0.307,35.274,1.522,1.528,-79.981,-77.655,-15.066
0.308,35.378,1.536,1.551,-79.989,-77.675,-15.168
0.309,35.506,1.554,1.579,-80.006,-77.700,-15.292
0.310,35.660,1.576,1.611,-80.032,-77.729,-15.441
0.311,35.833,1.602,1.647,-80.065,-77.763,-15.608
0.312,36.021,1.633,1.685,-80.104,-77.801,-15.788
0.313,36.218,1.668,1.726,-80.147,-77.843,-15.975
0.314,36.416,1.709,1.768,-80.192,-77.888,-16.163
0.315,36.611,1.754,1.811,-80.236,-77.936,-16.347
0.316,36.797,1.801,1.854,-80.279,-77.986,-16.520
0.317,36.967,1.849,1.895,-80.317,-78.039,-16.677
0.318,37.117,1.896,1.934,-80.350,-78.094,-16.812
0.319,37.240,1.941,1.970,-80.374,-78.150,-16.920
0.320,37.337,1.981,2.000,-80.390,-78.207,-16.996
0.321,37.411,2.014,2.026,-80.396,-78.265,-17.042
0.322,37.473,2.041,2.045,-80.393,-78.324,-17.062
0.323,37.534,2.057,2.056,-80.382,-78.383,-17.059
0.325,37.601,2.064,2.060,-80.363,-78.443,-17.036
0.326,37.677,2.062,2.056,-80.336,-78.503,-16.996
0.327,37.765,2.052,2.047,-80.303,-78.563,-16.942
0.328,37.861,2.038,2.034,-80.262,-78.623,-16.879
0.329,37.965,2.019,2.018,-80.215,-78.683,-16.808
0.330,38.074,1.999,1.999,-80.162,-78.742,-16.733
0.331,38.186,1.979,1.980,-80.104,-78.801,-16.658
0.332,38.300,1.959,1.961,-80.042,-78.863,-16.585
0.333,38.414,1.943,1.944,-79.977,-78.929,-16.518
0.334,38.529,1.932,1.930,-79.912,-79.003,-16.459
0.335,38.645,1.926,1.920,-79.847,-79.087,-16.411
0.336,38.765,1.926,1.915,-79.784,-79.184,-16.378
0.337,38.893,1.933,1.917,-79.725,-79.296,-16.363
0.338,39.034,1.947,1.927,-79.671,-79.426,-16.368
0.339,39.195,1.968,1.946,-79.625,-79.578,-16.397
0.340,39.383,1.997,1.976,-79.586,-79.752,-16.453
0.341,39.602,2.035,2.016,-79.557,-79.952,-16.538
0.342,39.847,2.081,2.070,-79.538,-80.172,-16.646
0.344,40.113,2.136,2.138,-79.526,-80.404,-16.774
0.345,40.391,2.201,2.220,-79.522,-80.644,-16.915
0.346,40.672,2.272,2.312,-79.524,-80.882,-17.063
0.347,40.948,2.349,2.412,-79.533,-81.114,-17.214
0.348,41.211,2.427,2.516,-79.546,-81.332,-17.361
0.349,41.453,2.506,2.619,-79.562,-81.530,-17.498
0.350,41.663,2.583,2.718,-79.582,-81.700,-17.620
0.351,41.835,2.655,2.810,-79.605,-81.837,-17.722
0.352,41.961,2.720,2.890,-79.628,-81.934,-17.798
0.353,42.044,2.776,2.954,-79.651,-81.995,-17.850
0.354,42.093,2.820,3.000,-79.672,-82.026,-17.881
0.355,42.116,2.853,3.027,-79.690,-82.033,-17.893
0.356,42.133,2.876,3.037,-79.702,-82.022,-17.890
0.357,42.162,2.890,3.035,-79.708,-81.998,-17.874
0.358,42.201,2.898,3.023,-79.705,-81.969,-17.849
0.359,42.247,2.900,3.005,-79.692,-81.939,-17.816
0.360,42.297,2.898,2.982,-79.668,-81.914,-17.780
0.362,42.351,2.895,2.959,-79.630,-81.901,-17.743
0.363,42.415,2.890,2.938,-79.577,-81.905,-17.708
0.364,42.491,2.887,2.923,-79.511,-81.926,-17.676
0.365,42.581,2.887,2.915,-79.435,-81.962,-17.646
0.366,42.683,2.888,2.915,-79.350,-82.012,-17.620
0.367,42.794,2.892,2.921,-79.260,-82.074,-17.598
0.368,42.914,2.898,2.931,-79.166,-82.146,-17.579
0.369,43.038,2.905,2.945,-79.072,-82.225,-17.565
0.370,43.165,2.914,2.961,-78.979,-82.312,-17.555
0.371,43.292,2.924,2.979,-78.891,-82.403,-17.549
0.372,43.417,2.935,2.996,-78.810,-82.497,-17.549
0.373,43.536,2.946,3.012,-78.737,-82.593,-17.554
0.374,43.651,2.958,3.025,-78.674,-82.688,-17.564
0.375,43.762,2.970,3.035,-78.619,-82.783,-17.578
0.376,43.869,2.982,3.043,-78.571,-82.877,-17.594
0.377,43.971,2.994,3.048,-78.529,-82.968,-17.613
0.378,44.069,3.005,3.051,-78.491,-83.056,-17.634
0.379,44.162,3.016,3.052,-78.457,-83.141,-17.654
0.381,44.250,3.026,3.052,-78.426,-83.220,-17.675
0.382,44.332,3.035,3.052,-78.396,-83.294,-17.694
0.383,44.408,3.043,3.051,-78.367,-83.362,-17.712
0.384,44.477,3.049,3.050,-78.337,-83.423,-17.727
0.385,44.541,3.054,3.049,-78.305,-83.476,-17.739
0.386,44.602,3.058,3.049,-78.268,-83.524,-17.749
0.387,44.661,3.062,3.051,-78.226,-83.565,-17.759
0.388,44.723,3.066,3.055,-78.177,-83.601,-17.767
0.389,44.791,3.071,3.061,-78.118,-83.633,-17.777
0.390,44.866,3.077,3.071,-78.048,-83.660,-17.787
0.391,44.953,3.086,3.084,-77.966,-83.684,-17.800
0.392,45.054,3.097,3.102,-77.869,-83.705,-17.814
0.393,45.170,3.111,3.124,-77.756,-83.724,-17.833
0.394,45.304,3.129,3.153,-77.624,-83.741,-17.855
0.395,45.453,3.151,3.186,-77.478,-83.757,-17.880
0.396,45.612,3.175,3.222,-77.322,-83.771,-17.908
0.397,45.775,3.200,3.259,-77.162,-83.785,-17.935
0.399,45.936,3.223,3.294,-77.004,-83.798,-17.961
0.400,46.090,3.244,3.326,-76.852,-83.811,-17.985
0.401,46.232,3.260,3.352,-76.713,-83.824,-18.003
0.402,46.354,3.270,3.370,-76.591,-83.837,-18.016
0.403,46.453,3.273,3.377,-76.493,-83.850,-18.022
0.404,46.524,3.266,3.372,-76.424,-83.864,-18.018
0.405,46.564,3.250,3.352,-76.389,-83.879,-18.004
0.406,46.592,3.225,3.322,-76.384,-83.895,-17.982
0.407,46.624,3.199,3.287,-76.396,-83.911,-17.958
0.408,46.655,3.176,3.254,-76.414,-83.927,-17.937
0.409,46.678,3.160,3.227,-76.425,-83.942,-17.926
0.410,46.694,3.157,3.214,-76.418,-83.957,-17.929
0.411,46.741,3.173,3.220,-76.380,-83.969,-17.952
0.412,46.836,3.211,3.252,-76.299,-83.980,-18.002
0.413,46.995,3.278,3.315,-76.163,-83.988,-18.084
0.414,47.231,3.378,3.414,-75.960,-83.993,-18.203
0.415,47.556,3.512,3.553,-75.678,-83.994,-18.365
0.416,47.967,3.675,3.723,-75.320,-83.992,-18.567
0.418,48.445,3.858,3.917,-74.904,-83.987,-18.801
0.419,48.969,4.055,4.124,-74.445,-83.979,-19.057
0.420,49.520,4.258,4.338,-73.963,-83.970,-19.324
0.421,50.078,4.459,4.550,-73.474,-83.961,-19.593
0.422,50.623,4.652,4.751,-72.996,-83.951,-19.854
0.423,51.135,4.828,4.933,-72.546,-83.941,-20.097
0.424,51.594,4.981,5.087,-72.141,-83.932,-20.312
0.425,51.979,5.104,5.206,-71.800,-83.925,-20.490
0.426,52.272,5.195,5.290,-71.538,-83.920,-20.622
0.427,52.468,5.261,5.343,-71.360,-83.918,-20.705
0.428,52.582,5.303,5.371,-71.255,-83.918,-20.748
0.429,52.627,5.327,5.380,-71.212,-83.920,-20.761
0.430,52.639,5.336,5.374,-71.218,-83.924,-20.752
0.431,52.689,5.335,5.358,-71.262,-83.931,-20.729
0.432,52.765,5.327,5.338,-71.333,-83.940,-20.703
0.433,52.854,5.316,5.319,-71.418,-83.950,-20.681
0.434,52.943,5.307,5.307,-71.507,-83.962,-20.673
0.436,53.025,5.302,5.304,-71.586,-83.976,-20.687
