"T","Distance","Radius","FreeRadius","X","Y","Z"
0.000,0.000,1.343,1.343,-81.646,-60.418,-2.241
0.001,0.117,1.413,1.415,-81.687,-60.525,-2.264
0.002,0.233,1.484,1.487,-81.728,-60.631,-2.287
0.004,0.347,1.554,1.559,-81.769,-60.736,-2.312
0.005,0.460,1.624,1.630,-81.810,-60.837,-2.338
0.006,0.570,1.693,1.700,-81.852,-60.934,-2.368
0.007,0.677,1.762,1.769,-81.894,-61.027,-2.400
0.008,0.780,1.831,1.836,-81.936,-61.114,-2.436
0.009,0.879,1.898,1.901,-81.979,-61.194,-2.477
0.011,0.976,1.965,1.964,-82.023,-61.266,-2.523
0.012,1.069,2.031,2.025,-82.067,-61.330,-2.575
0.013,1.160,2.095,2.083,-82.113,-61.383,-2.633
0.014,1.251,2.155,2.138,-82.158,-61.427,-2.698
0.015,1.342,2.210,2.191,-82.203,-61.463,-2.768
0.016,1.432,2.261,2.239,-82.246,-61.493,-2.843
0.018,1.522,2.304,2.285,-82.284,-61.520,-2.920
0.019,1.611,2.341,2.327,-82.316,-61.545,-2.998
0.020,1.696,2.368,2.364,-82.340,-61.571,-3.076
0.021,1.780,2.386,2.398,-82.354,-61.601,-3.152
0.022,1.861,2.396,2.427,-82.358,-61.637,-3.225
0.023,1.943,2.398,2.452,-82.348,-61.681,-3.294
0.025,2.029,2.397,2.474,-82.324,-61.736,-3.356
0.026,2.125,2.392,2.493,-82.283,-61.803,-3.410
0.027,2.236,2.388,2.509,-82.225,-61.885,-3.456
0.028,2.360,2.384,2.523,-82.151,-61.978,-3.494
0.029,2.497,2.385,2.534,-82.065,-62.080,-3.525
0.030,2.643,2.391,2.544,-81.969,-62.187,-3.549
0.032,2.794,2.403,2.552,-81.866,-62.296,-3.567
0.033,2.947,2.422,2.559,-81.758,-62.404,-3.581
0.034,3.098,2.445,2.564,-81.648,-62.507,-3.590
0.035,3.243,2.471,2.569,-81.538,-62.602,-3.596
0.036,3.379,2.499,2.574,-81.432,-62.686,-3.600
0.037,3.500,2.528,2.579,-81.332,-62.755,-3.603
0.039,3.605,2.555,2.583,-81.241,-62.807,-3.604
0.040,3.693,2.579,2.588,-81.160,-62.840,-3.606
0.041,3.765,2.599,2.594,-81.090,-62.857,-3.607
0.042,3.825,2.615,2.600,-81.030,-62.863,-3.607
0.043,3.876,2.626,2.606,-80.979,-62.863,-3.605
0.044,3.918,2.633,2.612,-80.938,-62.861,-3.602
0.046,3.951,2.637,2.617,-80.905,-62.863,-3.597
0.047,3.979,2.637,2.621,-80.880,-62.873,-3.589
0.048,4.009,2.634,2.623,-80.863,-62.896,-3.578
0.049,4.053,2.628,2.622,-80.853,-62.936,-3.564
0.050,4.118,2.620,2.619,-80.849,-62.998,-3.545
0.051,4.210,2.609,2.612,-80.851,-63.087,-3.522
0.053,4.332,2.597,2.602,-80.860,-63.205,-3.495
0.054,4.480,2.583,2.589,-80.872,-63.350,-3.464
0.055,4.649,2.568,2.573,-80.889,-63.514,-3.431
0.056,4.833,2.550,2.556,-80.908,-63.695,-3.397
0.057,5.028,2.532,2.536,-80.929,-63.885,-3.363
0.058,5.228,2.512,2.515,-80.952,-64.082,-3.331
0.060,5.429,2.491,2.492,-80.974,-64.278,-3.301
0.061,5.624,2.469,2.469,-80.996,-64.470,-3.274
0.062,5.809,2.447,2.446,-81.016,-64.653,-3.253
0.063,5.978,2.424,2.422,-81.034,-64.821,-3.238
0.064,6.127,2.401,2.399,-81.048,-64.969,-3.230
0.065,6.253,2.378,2.376,-81.058,-65.094,-3.231
0.067,6.357,2.357,2.355,-81.065,-65.198,-3.238
0.068,6.444,2.338,2.336,-81.069,-65.284,-3.252
0.069,6.517,2.320,2.319,-81.071,-65.354,-3.272
0.070,6.577,2.305,2.305,-81.073,-65.410,-3.295
0.071,6.630,2.293,2.294,-81.075,-65.455,-3.322
0.072,6.678,2.285,2.286,-81.077,-65.492,-3.351
0.074,6.721,2.278,2.281,-81.080,-65.524,-3.382
0.075,6.764,2.274,2.277,-81.086,-65.552,-3.413
0.076,6.806,2.270,2.274,-81.095,-65.580,-3.443
0.077,6.849,2.267,2.273,-81.108,-65.610,-3.471
0.078,6.895,2.265,2.270,-81.125,-65.644,-3.497
0.079,6.944,2.261,2.268,-81.146,-65.680,-3.521
0.081,6.994,2.257,2.263,-81.171,-65.719,-3.542
0.082,7.045,2.251,2.257,-81.198,-65.758,-3.560
0.083,7.097,2.243,2.249,-81.228,-65.798,-3.575
0.084,7.148,2.234,2.239,-81.259,-65.836,-3.587
0.085,7.197,2.224,2.228,-81.292,-65.872,-3.597
0.086,7.244,2.213,2.217,-81.325,-65.904,-3.603
0.088,7.288,2.201,2.204,-81.359,-65.932,-3.606
0.089,7.327,2.189,2.191,-81.392,-65.954,-3.606
0.090,7.363,2.177,2.178,-81.424,-65.970,-3.603
0.091,7.396,2.166,2.166,-81.455,-65.979,-3.596
0.092,7.428,2.155,2.154,-81.485,-65.983,-3.588
0.093,7.460,2.143,2.141,-81.516,-65.983,-3.579
0.095,7.492,2.131,2.129,-81.548,-65.982,-3.572
0.096,7.526,2.118,2.116,-81.581,-65.981,-3.566
0.097,7.562,2.103,2.101,-81.617,-65.982,-3.565
0.098,7.602,2.087,2.084,-81.656,-65.988,-3.568
0.099,7.648,2.067,2.066,-81.699,-66.000,-3.578
0.100,7.703,2.045,2.044,-81.748,-66.020,-3.596
0.102,7.770,2.019,2.020,-81.801,-66.049,-3.623
0.103,7.852,1.990,1.993,-81.861,-66.090,-3.661
0.104,7.950,1.959,1.963,-81.928,-66.144,-3.710
0.105,8.063,1.927,1.932,-82.000,-66.208,-3.767
0.106,8.187,1.894,1.901,-82.077,-66.282,-3.832
0.107,8.321,1.863,1.869,-82.159,-66.363,-3.901
0.109,8.462,1.833,1.839,-82.243,-66.448,-3.973
0.110,8.605,1.806,1.810,-82.329,-66.538,-4.046
0.111,8.750,1.783,1.784,-82.417,-66.628,-4.116
0.112,8.892,1.765,1.761,-82.504,-66.718,-4.183
0.113,9.030,1.752,1.741,-82.592,-66.806,-4.244
0.114,9.161,1.741,1.724,-82.677,-66.889,-4.297
0.116,9.282,1.732,1.710,-82.760,-66.967,-4.340
0.117,9.393,1.724,1.700,-82.840,-67.037,-4.371
0.118,9.495,1.717,1.692,-82.917,-67.101,-4.392
0.119,9.591,1.707,1.687,-82.991,-67.160,-4.404
0.120,9.681,1.696,1.685,-83.062,-67.217,-4.408
0.121,9.769,1.681,1.686,-83.131,-67.271,-4.406
0.123,9.854,1.663,1.688,-83.197,-67.325,-4.399
0.124,9.939,1.641,1.693,-83.260,-67.380,-4.389
0.125,10.024,1.616,1.698,-83.322,-67.437,-4.376
0.126,10.110,1.590,1.702,-83.381,-67.498,-4.362
0.127,10.198,1.564,1.706,-83.438,-67.563,-4.349
0.129,10.289,1.536,1.707,-83.494,-67.635,-4.338
0.130,10.385,1.510,1.705,-83.547,-67.714,-4.329
0.131,10.485,1.485,1.699,-83.599,-67.799,-4.322
0.132,10.589,1.462,1.689,-83.649,-67.890,-4.315
0.133,10.696,1.442,1.673,-83.698,-67.985,-4.309
0.134,10.804,1.424,1.655,-83.744,-68.083,-4.301
0.136,10.915,1.410,1.634,-83.788,-68.184,-4.292
0.137,11.026,1.398,1.613,-83.829,-68.286,-4.280
0.138,11.138,1.389,1.592,-83.869,-68.389,-4.264
0.139,11.249,1.384,1.573,-83.906,-68.492,-4.243
0.140,11.360,1.381,1.557,-83.941,-68.594,-4.218
0.141,11.469,1.383,1.545,-83.974,-68.694,-4.185
0.143,11.578,1.387,1.538,-84.004,-68.791,-4.147
0.144,11.686,1.394,1.535,-84.031,-68.887,-4.106
0.145,11.793,1.401,1.533,-84.056,-68.982,-4.062
0.146,11.900,1.406,1.531,-84.078,-69.077,-4.020
0.147,12.006,1.409,1.526,-84.096,-69.174,-3.982
0.148,12.111,1.407,1.516,-84.112,-69.273,-3.950
0.150,12.217,1.398,1.500,-84.125,-69.376,-3.927
0.151,12.325,1.381,1.474,-84.134,-69.482,-3.915
0.152,12.436,1.354,1.438,-84.141,-69.594,-3.916
0.153,12.555,1.318,1.391,-84.143,-69.712,-3.934
0.154,12.685,1.274,1.337,-84.142,-69.836,-3.970
0.155,12.828,1.227,1.278,-84.138,-69.967,-4.026
0.157,12.980,1.179,1.218,-84.130,-70.102,-4.099
0.158,13.141,1.134,1.162,-84.118,-70.235,-4.186
0.159,13.306,1.093,1.112,-84.102,-70.365,-4.287
0.160,13.472,1.062,1.071,-84.082,-70.487,-4.397
0.161,13.636,1.042,1.044,-84.058,-70.599,-4.515
0.162,13.795,1.037,1.034,-84.029,-70.696,-4.639
0.164,13.948,1.045,1.039,-83.997,-70.775,-4.765
0.165,14.093,1.064,1.056,-83.960,-70.832,-4.893
0.166,14.229,1.090,1.082,-83.919,-70.865,-5.019
0.167,14.359,1.119,1.112,-83.873,-70.869,-5.140
0.168,14.488,1.150,1.144,-83.823,-70.844,-5.256
0.169,14.619,1.177,1.174,-83.772,-70.797,-5.367
0.171,14.754,1.199,1.197,-83.720,-70.731,-5.473
0.172,14.891,1.211,1.211,-83.669,-70.652,-5.574
0.173,15.028,1.212,1.213,-83.622,-70.566,-5.669
0.174,15.162,1.203,1.204,-83.580,-70.478,-5.761
0.175,15.287,1.187,1.188,-83.546,-70.395,-5.847
0.176,15.401,1.165,1.166,-83.520,-70.320,-5.930
0.178,15.501,1.141,1.141,-83.505,-70.260,-6.008
0.179,15.586,1.117,1.117,-83.503,-70.219,-6.083
0.180,15.659,1.095,1.094,-83.516,-70.205,-6.154
0.181,15.733,1.078,1.078,-83.543,-70.217,-6.221
0.182,15.816,1.068,1.069,-83.581,-70.252,-6.286
0.183,15.910,1.067,1.068,-83.626,-70.305,-6.349
0.185,16.013,1.072,1.075,-83.677,-70.371,-6.410
0.186,16.123,1.082,1.086,-83.728,-70.446,-6.470
0.187,16.234,1.095,1.101,-83.778,-70.526,-6.530
0.188,16.343,1.109,1.117,-83.822,-70.605,-6.590
0.189,16.445,1.122,1.132,-83.857,-70.680,-6.651
0.190,16.538,1.133,1.144,-83.881,-70.745,-6.713
0.192,16.621,1.140,1.152,-83.888,-70.796,-6.778
0.193,16.696,1.142,1.153,-83.878,-70.828,-6.845
0.194,16.773,1.138,1.149,-83.847,-70.841,-6.915
0.195,16.860,1.129,1.139,-83.800,-70.836,-6.987
0.196,16.958,1.117,1.126,-83.739,-70.817,-7.061
0.197,17.067,1.103,1.110,-83.666,-70.787,-7.137
0.199,17.185,1.088,1.092,-83.585,-70.750,-7.214
0.200,17.309,1.072,1.075,-83.498,-70.708,-7.292
0.201,17.436,1.058,1.059,-83.408,-70.665,-7.370
0.202,17.561,1.045,1.045,-83.318,-70.623,-7.448
0.203,17.683,1.036,1.035,-83.231,-70.587,-7.525
0.204,17.798,1.029,1.027,-83.150,-70.558,-7.600
0.206,17.904,1.024,1.022,-83.076,-70.541,-7.675
0.207,18.001,1.021,1.019,-83.013,-70.536,-7.747
0.208,18.090,1.019,1.017,-82.958,-70.542,-7.818
0.209,18.175,1.017,1.016,-82.911,-70.558,-7.886
0.210,18.256,1.016,1.016,-82.871,-70.583,-7.952
0.211,18.335,1.015,1.015,-82.838,-70.615,-8.017
0.213,18.413,1.013,1.013,-82.810,-70.653,-8.078
0.214,18.489,1.011,1.011,-82.787,-70.695,-8.138
0.215,18.565,1.008,1.008,-82.767,-70.741,-8.194
0.216,18.639,1.006,1.006,-82.751,-70.789,-8.249
0.217,18.711,1.005,1.005,-82.738,-70.837,-8.300
0.218,18.780,1.006,1.006,-82.725,-70.885,-8.349
0.220,18.847,1.008,1.009,-82.715,-70.933,-8.394
0.221,18.911,1.014,1.014,-82.707,-70.981,-8.436
0.222,18.974,1.023,1.023,-82.704,-71.032,-8.473
0.223,19.038,1.036,1.036,-82.708,-71.087,-8.504
0.224,19.105,1.053,1.053,-82.718,-71.148,-8.530
0.225,19.179,1.075,1.075,-82.738,-71.217,-8.548
0.227,19.263,1.101,1.101,-82.767,-71.295,-8.559
0.228,19.361,1.132,1.132,-82.809,-71.384,-8.561
0.229,19.477,1.168,1.168,-82.864,-71.485,-8.554
0.230,19.613,1.209,1.209,-82.934,-71.601,-8.537
0.231,19.772,1.256,1.256,-83.019,-71.732,-8.509
0.232,19.954,1.308,1.308,-83.121,-71.878,-8.471
0.234,20.153,1.366,1.366,-83.235,-72.035,-8.423
0.235,20.367,1.427,1.427,-83.360,-72.198,-8.366
0.236,20.588,1.491,1.491,-83.492,-72.364,-8.301
0.237,20.814,1.555,1.555,-83.629,-72.529,-8.229
0.238,21.039,1.618,1.618,-83.768,-72.688,-8.152
0.239,21.259,1.678,1.679,-83.906,-72.837,-8.069
0.241,21.469,1.734,1.734,-84.042,-72.972,-7.982
0.242,21.665,1.784,1.784,-84.171,-73.089,-7.892
0.243,21.844,1.826,1.826,-84.292,-73.184,-7.800
0.244,22.004,1.860,1.860,-84.401,-73.254,-7.707
0.245,22.145,1.886,1.886,-84.498,-73.296,-7.613
0.246,22.274,1.906,1.906,-84.583,-73.316,-7.519
0.248,22.393,1.919,1.919,-84.658,-73.315,-7.426
0.249,22.508,1.928,1.928,-84.724,-73.297,-7.334
0.250,22.619,1.932,1.932,-84.780,-73.266,-7.244
0.251,22.728,1.933,1.933,-84.829,-73.224,-7.156
0.252,22.835,1.931,1.931,-84.871,-73.175,-7.070
0.254,22.939,1.928,1.928,-84.906,-73.121,-6.988
0.255,23.039,1.922,1.922,-84.937,-73.067,-6.910
0.256,23.132,1.916,1.916,-84.963,-73.015,-6.837
0.257,23.218,1.910,1.910,-84.986,-72.969,-6.768
0.258,23.295,1.903,1.903,-85.007,-72.930,-6.706
0.259,23.360,1.898,1.898,-85.026,-72.899,-6.652
0.261,23.413,1.893,1.893,-85.045,-72.877,-6.607
0.262,23.453,1.890,1.890,-85.065,-72.864,-6.575
0.263,23.482,1.889,1.889,-85.087,-72.861,-6.556
0.264,23.508,1.890,1.890,-85.112,-72.868,-6.553
0.265,23.544,1.893,1.893,-85.140,-72.886,-6.567
0.266,23.600,1.897,1.897,-85.174,-72.915,-6.601
0.268,23.679,1.903,1.903,-85.214,-72.956,-6.656
0.269,23.785,1.909,1.909,-85.260,-73.009,-6.734
0.270,23.919,1.914,1.914,-85.315,-73.076,-6.837
0.271,24.080,1.919,1.919,-85.379,-73.154,-6.963
0.272,24.264,1.923,1.923,-85.451,-73.240,-7.108
0.273,24.465,1.926,1.926,-85.531,-73.331,-7.267
0.275,24.678,1.927,1.927,-85.620,-73.424,-7.437
0.276,24.898,1.927,1.927,-85.718,-73.516,-7.612
0.277,25.121,1.928,1.928,-85.824,-73.603,-7.789
0.278,25.343,1.930,1.930,-85.939,-73.681,-7.961
0.279,25.560,1.934,1.934,-86.062,-73.749,-8.127
0.280,25.768,1.941,1.941,-86.193,-73.802,-8.279
0.282,25.966,1.951,1.951,-86.332,-73.838,-8.415
0.283,26.154,1.965,1.965,-86.480,-73.852,-8.531
0.284,26.335,1.985,1.985,-86.635,-73.846,-8.624
0.285,26.511,2.009,2.009,-86.793,-73.823,-8.698
0.286,26.685,2.036,2.036,-86.953,-73.785,-8.755
0.287,26.857,2.065,2.065,-87.112,-73.736,-8.798
0.289,27.025,2.094,2.094,-87.267,-73.680,-8.830
0.290,27.187,2.123,2.123,-87.415,-73.618,-8.852
0.291,27.340,2.151,2.151,-87.554,-73.555,-8.867
0.292,27.481,2.176,2.176,-87.681,-73.494,-8.877
0.293,27.607,2.198,2.198,-87.793,-73.437,-8.886
0.294,27.715,2.215,2.215,-87.888,-73.388,-8.895
0.296,27.800,2.229,2.229,-87.963,-73.351,-8.908
0.297,27.864,2.242,2.242,-88.020,-73.324,-8.924
0.298,27.912,2.253,2.253,-88.060,-73.306,-8.943
0.299,27.948,2.266,2.266,-88.087,-73.295,-8.964
0.300,27.978,2.280,2.280,-88.105,-73.289,-8.986
0.301,28.004,2.298,2.298,-88.116,-73.285,-9.010
0.303,28.029,2.320,2.320,-88.125,-73.281,-9.033
0.304,28.054,2.348,2.348,-88.133,-73.276,-9.056
0.305,28.080,2.382,2.382,-88.144,-73.266,-9.077
0.306,28.110,2.419,2.419,-88.161,-73.250,-9.096
0.307,28.150,2.458,2.458,-88.188,-73.226,-9.112
0.308,28.204,2.498,2.498,-88.228,-73.191,-9.125
0.310,28.274,2.537,2.537,-88.280,-73.145,-9.134
0.311,28.358,2.574,2.574,-88.343,-73.091,-9.140
0.312,28.453,2.607,2.607,-88.415,-73.028,-9.144
0.313,28.558,2.634,2.634,-88.494,-72.959,-9.146
0.314,28.670,2.655,2.655,-88.577,-72.884,-9.148
0.315,28.786,2.670,2.670,-88.664,-72.806,-9.149
0.317,28.905,2.681,2.681,-88.751,-72.726,-9.151
0.318,29.024,2.687,2.687,-88.838,-72.645,-9.154
0.319,29.140,2.692,2.692,-88.921,-72.564,-9.158
0.320,29.252,2.695,2.695,-89.000,-72.484,-9.165
0.321,29.357,2.698,2.698,-89.071,-72.408,-9.175
0.322,29.455,2.701,2.701,-89.136,-72.336,-9.187
0.324,29.546,2.708,2.708,-89.193,-72.267,-9.202
0.325,29.629,2.716,2.716,-89.244,-72.203,-9.219
0.326,29.706,2.727,2.727,-89.289,-72.142,-9.237
0.327,29.777,2.739,2.739,-89.328,-72.087,-9.255
0.328,29.840,2.752,2.752,-89.361,-72.036,-9.273
0.329,29.898,2.764,2.764,-89.390,-71.989,-9.291
0.331,29.948,2.776,2.776,-89.413,-71.948,-9.307
0.332,29.991,2.785,2.785,-89.432,-71.912,-9.321
0.333,30.028,2.793,2.793,-89.448,-71.881,-9.333
0.334,30.057,2.797,2.797,-89.460,-71.856,-9.342
0.335,30.080,2.798,2.798,-89.469,-71.836,-9.348
0.336,30.096,2.797,2.797,-89.475,-71.821,-9.352
0.338,30.108,2.795,2.795,-89.480,-71.810,-9.354
0.339,30.116,2.791,2.791,-89.485,-71.804,-9.354
0.340,30.121,2.787,2.787,-89.489,-71.801,-9.355
0.341,30.126,2.784,2.784,-89.494,-71.801,-9.355
0.342,30.134,2.782,2.782,-89.500,-71.805,-9.356
0.343,30.144,2.781,2.781,-89.509,-71.810,-9.358
0.345,30.158,2.783,2.783,-89.520,-71.818,-9.363
0.346,30.177,2.786,2.786,-89.534,-71.828,-9.369
0.347,30.201,2.790,2.790,-89.553,-71.838,-9.379
0.348,30.230,2.794,2.794,-89.577,-71.850,-9.391
0.349,30.263,2.798,2.798,-89.605,-71.862,-9.406
0.350,30.301,2.800,2.800,-89.637,-71.873,-9.423
0.352,30.343,2.800,2.800,-89.673,-71.883,-9.441
0.353,30.389,2.797,2.797,-89.714,-71.892,-9.460
0.354,30.438,2.790,2.790,-89.759,-71.898,-9.480
0.355,30.492,2.780,2.780,-89.808,-71.902,-9.500
0.356,30.548,2.767,2.767,-89.861,-71.902,-9.519
0.357,30.609,2.752,2.752,-89.919,-71.899,-9.538
0.359,30.673,2.737,2.737,-89.981,-71.891,-9.555
0.360,30.742,2.722,2.722,-90.046,-71.879,-9.570
0.361,30.814,2.709,2.709,-90.115,-71.862,-9.584
0.362,30.888,2.699,2.699,-90.185,-71.841,-9.595
0.363,30.963,2.692,2.692,-90.255,-71.817,-9.604
0.364,31.037,2.691,2.691,-90.324,-71.791,-9.611
0.366,31.108,2.694,2.694,-90.390,-71.763,-9.615
0.367,31.176,2.701,2.701,-90.451,-71.735,-9.617
0.368,31.238,2.710,2.711,-90.507,-71.707,-9.617
0.369,31.293,2.721,2.722,-90.555,-71.680,-9.614
0.370,31.340,2.733,2.733,-90.594,-71.655,-9.608
0.371,31.378,2.744,2.744,-90.624,-71.633,-9.599
0.373,31.407,2.754,2.754,-90.641,-71.613,-9.588
0.374,31.429,2.761,2.761,-90.650,-71.598,-9.575
0.375,31.447,2.766,2.766,-90.652,-71.584,-9.562
0.376,31.463,2.768,2.767,-90.652,-71.574,-9.551
0.377,31.474,2.769,2.767,-90.653,-71.566,-9.543
0.379,31.484,2.768,2.767,-90.659,-71.559,-9.539
0.380,31.499,2.768,2.767,-90.672,-71.555,-9.542
0.381,31.527,2.769,2.768,-90.698,-71.551,-9.552
0.382,31.573,2.772,2.770,-90.739,-71.548,-9.572
0.383,31.640,2.777,2.776,-90.799,-71.545,-9.604
0.384,31.734,2.785,2.786,-90.882,-71.543,-9.647
0.386,31.856,2.798,2.800,-90.989,-71.540,-9.705
0.387,32.005,2.815,2.818,-91.121,-71.536,-9.776
0.388,32.177,2.839,2.843,-91.273,-71.529,-9.856
0.389,32.367,2.869,2.874,-91.441,-71.518,-9.943
0.390,32.570,2.906,2.911,-91.622,-71.503,-10.034
0.391,32.782,2.951,2.956,-91.811,-71.482,-10.128
0.393,32.999,3.004,3.008,-92.006,-71.453,-10.220
0.394,33.217,3.068,3.069,-92.202,-71.415,-10.308
0.395,33.432,3.141,3.138,-92.395,-71.368,-10.389
0.396,33.641,3.222,3.214,-92.582,-71.310,-10.462
0.397,33.840,3.309,3.296,-92.758,-71.240,-10.522
0.398,34.029,3.397,3.380,-92.921,-71.157,-10.568
0.400,34.208,3.484,3.464,-93.070,-71.062,-10.601
0.401,34.380,3.567,3.547,-93.204,-70.958,-10.623
0.402,34.545,3.642,3.625,-93.325,-70.847,-10.637
0.403,34.703,3.707,3.698,-93.432,-70.730,-10.646
0.404,34.854,3.759,3.761,-93.525,-70.611,-10.653
0.405,34.999,3.796,3.815,-93.606,-70.492,-10.659
0.407,35.134,3.820,3.859,-93.673,-70.374,-10.669
0.408,35.261,3.834,3.895,-93.728,-70.261,-10.684
0.409,35.379,3.840,3.924,-93.771,-70.154,-10.707
0.410,35.487,3.841,3.947,-93.801,-70.056,-10.741
0.411,35.588,3.840,3.964,-93.820,-69.968,-10.788
0.412,35.686,3.840,3.978,-93.831,-69.891,-10.848
0.414,35.784,3.843,3.989,-93.836,-69.824,-10.919
0.415,35.886,3.852,3.998,-93.840,-69.765,-11.001
0.416,35.991,3.867,4.005,-93.846,-69.714,-11.093
0.417,36.100,3.887,4.012,-93.858,-69.668,-11.192
0.418,36.215,3.911,4.017,-93.879,-69.628,-11.298
0.419,36.337,3.937,4.021,-93.914,-69.593,-11.409
0.421,36.468,3.963,4.024,-93.965,-69.560,-11.525
0.422,36.610,3.987,4.027,-94.037,-69.530,-11.643
0.423,36.767,4.009,4.028,-94.134,-69.500,-11.763
0.424,36.942,4.027,4.029,-94.257,-69.471,-11.884
0.425,37.134,4.039,4.030,-94.404,-69.442,-12.004
0.426,37.342,4.047,4.030,-94.572,-69.412,-12.124
0.428,37.561,4.051,4.031,-94.755,-69.381,-12.241
0.429,37.788,4.053,4.033,-94.948,-69.350,-12.355
0.430,38.018,4.054,4.037,-95.148,-69.318,-12.465
0.431,38.248,4.057,4.044,-95.349,-69.285,-12.571
0.432,38.472,4.062,4.054,-95.547,-69.250,-12.671
0.433,38.687,4.071,4.068,-95.736,-69.215,-12.765
0.435,38.888,4.086,4.087,-95.914,-69.178,-12.853
0.436,39.072,4.107,4.110,-96.074,-69.139,-12.932
0.437,39.233,4.131,4.136,-96.214,-69.099,-13.003
0.438,39.373,4.158,4.163,-96.332,-69.058,-13.066
0.439,39.495,4.183,4.188,-96.431,-69.015,-13.122
0.440,39.599,4.206,4.210,-96.512,-68.973,-13.171
0.442,39.688,4.223,4.226,-96.576,-68.930,-13.216
0.443,39.763,4.233,4.234,-96.625,-68.889,-13.257
0.444,39.829,4.232,4.233,-96.659,-68.849,-13.295
0.445,39.886,4.220,4.220,-96.681,-68.811,-13.331
0.446,39.937,4.197,4.196,-96.693,-68.775,-13.366
0.447,39.985,4.165,4.164,-96.694,-68.742,-13.401
0.449,40.032,4.128,4.127,-96.688,-68.712,-13.436
0.450,40.079,4.089,4.088,-96.674,-68.686,-13.473
0.451,40.125,4.051,4.050,-96.657,-68.664,-13.511
0.452,40.168,4.017,4.017,-96.639,-68.647,-13.545
0.453,40.205,3.991,3.990,-96.624,-68.633,-13.576
0.454,40.232,3.974,3.974,-96.615,-68.624,-13.600
0.456,40.247,3.971,3.971,-96.615,-68.619,-13.614
0.457,40.259,3.979,3.979,-96.626,-68.619,-13.618
0.458,40.289,3.996,3.997,-96.653,-68.623,-13.608
0.459,40.342,4.020,4.021,-96.699,-68.632,-13.583
0.460,40.423,4.049,4.049,-96.766,-68.646,-13.539
0.461,40.536,4.080,4.080,-96.858,-68.664,-13.476
0.463,40.684,4.110,4.110,-96.978,-68.688,-13.391
0.464,40.865,4.137,4.137,-97.123,-68.716,-13.288
0.465,41.072,4.159,4.159,-97.292,-68.750,-13.172
0.466,41.302,4.175,4.175,-97.481,-68.788,-13.047
0.467,41.550,4.185,4.185,-97.687,-68.833,-12.917
0.468,41.812,4.190,4.189,-97.909,-68.882,-12.788
0.470,42.082,4.189,4.189,-98.143,-68.937,-12.663
0.471,42.359,4.185,4.185,-98.387,-68.998,-12.548
0.472,42.637,4.178,4.178,-98.638,-69.065,-12.448
0.473,42.915,4.168,4.168,-98.893,-69.137,-12.366
0.474,43.190,4.156,4.156,-99.150,-69.216,-12.308
0.475,43.461,4.143,4.143,-99.406,-69.301,-12.277
0.477,43.730,4.129,4.129,-99.659,-69.391,-12.271
0.478,43.996,4.115,4.115,-99.907,-69.486,-12.287
0.479,44.259,4.103,4.103,-100.149,-69.585,-12.320
0.480,44.517,4.092,4.092,-100.381,-69.687,-12.368
0.481,44.769,4.083,4.083,-100.602,-69.791,-12.427
0.482,45.012,4.077,4.077,-100.811,-69.898,-12.493
0.484,45.244,4.076,4.076,-101.005,-70.005,-12.562
0.485,45.463,4.078,4.078,-101.182,-70.113,-12.632
