"T","Distance","Radius","FreeRadius","X","Y","Z"
0.000,0.000,1.036,1.036,-79.101,-57.726,-3.588
0.001,0.256,1.089,1.089,-79.102,-57.982,-3.594
0.003,0.508,1.141,1.141,-79.102,-58.234,-3.597
0.004,0.752,1.192,1.192,-79.099,-58.478,-3.595
0.006,0.983,1.239,1.239,-79.093,-58.709,-3.585
0.007,1.200,1.283,1.283,-79.082,-58.925,-3.566
0.009,1.398,1.322,1.322,-79.065,-59.120,-3.535
0.010,1.577,1.356,1.356,-79.041,-59.291,-3.489
0.012,1.736,1.384,1.384,-79.008,-59.434,-3.426
0.013,1.880,1.406,1.406,-78.966,-59.544,-3.344
0.015,2.019,1.423,1.423,-78.912,-59.618,-3.239
0.016,2.165,1.437,1.437,-78.849,-59.655,-3.113
0.018,2.328,1.447,1.447,-78.777,-59.660,-2.967
0.019,2.508,1.454,1.454,-78.700,-59.639,-2.806
0.021,2.703,1.458,1.458,-78.621,-59.598,-2.632
0.022,2.910,1.462,1.462,-78.542,-59.541,-2.450
0.024,3.123,1.465,1.465,-78.466,-59.475,-2.262
0.025,3.337,1.469,1.469,-78.396,-59.404,-2.073
0.027,3.546,1.476,1.476,-78.335,-59.335,-1.884
0.028,3.746,1.485,1.485,-78.285,-59.273,-1.701
0.030,3.932,1.499,1.499,-78.250,-59.222,-1.526
0.031,4.104,1.518,1.518,-78.228,-59.185,-1.360
0.032,4.263,1.543,1.543,-78.217,-59.159,-1.203
0.034,4.412,1.573,1.573,-78.216,-59.140,-1.055
0.035,4.551,1.606,1.606,-78.222,-59.128,-0.917
0.037,4.682,1.642,1.642,-78.233,-59.120,-0.787
0.038,4.804,1.680,1.680,-78.247,-59.114,-0.665
0.040,4.918,1.719,1.719,-78.261,-59.107,-0.552
0.041,5.024,1.758,1.758,-78.273,-59.097,-0.448
0.043,5.122,1.797,1.797,-78.282,-59.083,-0.352
0.044,5.212,1.834,1.834,-78.285,-59.061,-0.263
0.046,5.297,1.870,1.870,-78.282,-59.034,-0.183
0.047,5.376,1.903,1.903,-78.276,-59.002,-0.111
0.049,5.451,1.934,1.934,-78.267,-58.966,-0.046
0.050,5.520,1.961,1.961,-78.256,-58.929,0.010
0.052,5.584,1.984,1.984,-78.244,-58.890,0.060
0.053,5.641,2.003,2.003,-78.232,-58.852,0.101
0.055,5.693,2.018,2.018,-78.221,-58.815,0.136
0.056,5.737,2.031,2.031,-78.213,-58.781,0.163
0.058,5.773,2.041,2.041,-78.208,-58.751,0.183
0.059,5.801,2.050,2.050,-78.207,-58.726,0.196
0.061,5.823,2.056,2.056,-78.209,-58.706,0.205
0.062,5.841,2.062,2.062,-78.212,-58.690,0.211
0.064,5.855,2.067,2.067,-78.216,-58.677,0.216
0.065,5.867,2.072,2.072,-78.220,-58.667,0.221
0.066,5.878,2.077,2.077,-78.222,-58.661,0.230
0.068,5.892,2.083,2.083,-78.222,-58.657,0.244
0.069,5.913,2.091,2.091,-78.218,-58.654,0.264
0.071,5.942,2.100,2.100,-78.210,-58.654,0.292
0.072,5.983,2.112,2.112,-78.196,-58.654,0.331
0.074,6.035,2.126,2.126,-78.177,-58.656,0.379
0.075,6.097,2.141,2.141,-78.153,-58.657,0.435
0.077,6.165,2.157,2.157,-78.126,-58.659,0.498
0.078,6.238,2.175,2.175,-78.096,-58.661,0.565
0.080,6.315,2.193,2.193,-78.064,-58.663,0.634
0.081,6.393,2.212,2.212,-78.030,-58.664,0.705
0.083,6.470,2.230,2.230,-77.996,-58.664,0.774
0.084,6.545,2.249,2.249,-77.963,-58.662,0.841
0.086,6.614,2.267,2.267,-77.931,-58.659,0.903
0.087,6.678,2.284,2.284,-77.902,-58.654,0.959
0.089,6.734,2.300,2.300,-77.875,-58.649,1.008
0.090,6.783,2.316,2.316,-77.851,-58.642,1.050
0.092,6.823,2.330,2.330,-77.832,-58.637,1.085
0.093,6.855,2.343,2.343,-77.818,-58.632,1.113
0.095,6.877,2.353,2.353,-77.809,-58.631,1.133
0.096,6.889,2.362,2.362,-77.806,-58.632,1.145
0.097,6.897,2.367,2.367,-77.810,-58.637,1.149
0.099,6.913,2.369,2.369,-77.821,-58.647,1.146
0.100,6.940,2.367,2.367,-77.840,-58.662,1.133
0.102,6.979,2.361,2.361,-77.866,-58.683,1.113
0.103,7.023,2.351,2.351,-77.896,-58.706,1.090
0.105,7.067,2.339,2.339,-77.924,-58.728,1.066
0.106,7.103,2.324,2.324,-77.948,-58.746,1.045
0.108,7.126,2.310,2.310,-77.963,-58.758,1.031
0.109,7.130,2.295,2.295,-77.964,-58.759,1.029
0.111,7.152,2.282,2.282,-77.949,-58.748,1.040
0.112,7.206,2.272,2.272,-77.913,-58.720,1.069
0.114,7.299,2.265,2.265,-77.851,-58.674,1.120
0.115,7.435,2.262,2.262,-77.761,-58.605,1.196
0.117,7.613,2.265,2.265,-77.644,-58.516,1.295
0.118,7.822,2.274,2.274,-77.505,-58.411,1.412
0.120,8.055,2.290,2.290,-77.351,-58.294,1.542
0.121,8.303,2.315,2.315,-77.188,-58.169,1.679
0.123,8.555,2.348,2.348,-77.020,-58.040,1.818
0.124,8.805,2.387,2.387,-76.855,-57.912,1.953
0.126,9.041,2.430,2.430,-76.697,-57.790,2.080
0.127,9.257,2.473,2.473,-76.552,-57.677,2.193
0.129,9.442,2.513,2.513,-76.427,-57.578,2.287
0.130,9.590,2.548,2.548,-76.326,-57.496,2.357
0.131,9.702,2.573,2.573,-76.248,-57.431,2.405
0.133,9.781,2.589,2.589,-76.191,-57.384,2.434
0.134,9.832,2.595,2.595,-76.153,-57.352,2.446
0.136,9.859,2.595,2.595,-76.132,-57.335,2.445
0.137,9.872,2.590,2.590,-76.126,-57.333,2.433
0.139,9.896,2.583,2.583,-76.133,-57.344,2.414
0.140,9.934,2.576,2.576,-76.150,-57.368,2.390
0.142,9.985,2.571,2.571,-76.175,-57.404,2.364
0.143,10.047,2.568,2.568,-76.207,-57.452,2.339
0.145,10.117,2.568,2.568,-76.242,-57.508,2.316
0.146,10.187,2.569,2.569,-76.277,-57.566,2.298
0.148,10.251,2.568,2.568,-76.308,-57.619,2.283
0.149,10.300,2.565,2.565,-76.330,-57.661,2.274
0.151,10.327,2.558,2.558,-76.341,-57.686,2.269
0.152,10.332,2.546,2.546,-76.335,-57.686,2.270
0.154,10.373,2.531,2.531,-76.310,-57.655,2.278
0.155,10.459,2.515,2.515,-76.261,-57.586,2.292
0.157,10.597,2.506,2.506,-76.184,-57.473,2.314
0.158,10.796,2.507,2.507,-76.076,-57.309,2.343
0.160,11.049,2.522,2.522,-75.939,-57.099,2.379
0.161,11.344,2.558,2.558,-75.780,-56.854,2.420
0.162,11.667,2.618,2.618,-75.607,-56.585,2.465
0.164,12.005,2.700,2.700,-75.426,-56.303,2.512
0.165,12.343,2.797,2.797,-75.245,-56.021,2.559
0.167,12.669,2.899,2.899,-75.071,-55.750,2.605
0.168,12.969,3.000,3.000,-74.911,-55.500,2.648
0.170,13.229,3.091,3.091,-74.772,-55.284,2.686
0.171,13.435,3.165,3.165,-74.661,-55.113,2.718
0.173,13.578,3.214,3.214,-74.583,-54.995,2.742
0.174,13.664,3.240,3.240,-74.535,-54.926,2.759
0.176,13.705,3.249,3.249,-74.511,-54.894,2.770
0.177,13.715,3.246,3.246,-74.504,-54.892,2.775
0.179,13.732,3.239,3.239,-74.508,-54.909,2.776
0.180,13.759,3.231,3.231,-74.516,-54.935,2.773
0.182,13.787,3.231,3.231,-74.522,-54.961,2.768
0.183,13.805,3.242,3.242,-74.521,-54.978,2.761
0.185,13.823,3.265,3.265,-74.505,-54.975,2.753
0.186,13.871,3.299,3.299,-74.469,-54.944,2.746
0.188,13.960,3.343,3.343,-74.409,-54.880,2.739
0.189,14.082,3.396,3.396,-74.329,-54.787,2.733
0.191,14.232,3.458,3.458,-74.234,-54.671,2.728
0.192,14.402,3.528,3.528,-74.127,-54.539,2.724
0.194,14.585,3.603,3.603,-74.013,-54.396,2.721
0.195,14.774,3.682,3.682,-73.896,-54.248,2.719
0.196,14.961,3.763,3.763,-73.780,-54.101,2.719
0.198,15.140,3.841,3.841,-73.669,-53.960,2.719
0.199,15.304,3.916,3.916,-73.568,-53.832,2.721
0.201,15.444,3.984,3.984,-73.480,-53.722,2.724
0.202,15.561,4.043,4.043,-73.407,-53.631,2.728
0.204,15.656,4.091,4.091,-73.348,-53.557,2.734
0.205,15.731,4.129,4.129,-73.300,-53.499,2.740
0.207,15.789,4.160,4.160,-73.264,-53.455,2.747
0.208,15.832,4.183,4.183,-73.237,-53.422,2.754
0.210,15.863,4.201,4.201,-73.218,-53.398,2.761
0.211,15.884,4.216,4.216,-73.207,-53.383,2.769
0.213,15.898,4.228,4.228,-73.201,-53.372,2.776
0.214,15.907,4.239,4.239,-73.200,-53.366,2.783
0.216,15.916,4.248,4.248,-73.203,-53.361,2.790
0.217,15.924,4.255,4.255,-73.207,-53.357,2.795
0.219,15.932,4.260,4.260,-73.213,-53.353,2.799
0.220,15.940,4.263,4.263,-73.220,-53.349,2.801
0.222,15.948,4.264,4.264,-73.225,-53.343,2.801
0.223,15.957,4.263,4.263,-73.229,-53.336,2.798
0.225,15.969,4.260,4.260,-73.231,-53.327,2.791
0.226,15.985,4.256,4.256,-73.228,-53.314,2.780
0.227,16.009,4.251,4.251,-73.222,-53.298,2.765
0.229,16.040,4.247,4.247,-73.209,-53.277,2.745
0.230,16.080,4.244,4.244,-73.190,-53.251,2.720
0.232,16.129,4.243,4.243,-73.166,-53.221,2.691
0.233,16.184,4.246,4.246,-73.138,-53.186,2.659
0.235,16.246,4.250,4.250,-73.105,-53.147,2.624
0.236,16.313,4.256,4.256,-73.068,-53.103,2.588
0.238,16.385,4.263,4.263,-73.029,-53.055,2.552
0.239,16.461,4.270,4.270,-72.988,-53.003,2.516
0.241,16.539,4.275,4.275,-72.946,-52.947,2.481
0.242,16.619,4.278,4.278,-72.903,-52.887,2.449
0.244,16.702,4.279,4.279,-72.860,-52.823,2.420
0.245,16.785,4.277,4.277,-72.818,-52.756,2.395
0.247,16.869,4.273,4.273,-72.776,-52.687,2.372
0.248,16.953,4.268,4.268,-72.735,-52.617,2.351
0.250,17.037,4.263,4.263,-72.695,-52.546,2.332
0.251,17.119,4.258,4.258,-72.656,-52.475,2.314
0.253,17.200,4.255,4.255,-72.618,-52.406,2.296
0.254,17.278,4.254,4.254,-72.582,-52.339,2.279
0.256,17.353,4.254,4.254,-72.548,-52.275,2.260
0.257,17.424,4.256,4.256,-72.515,-52.215,2.241
0.258,17.491,4.258,4.258,-72.484,-52.160,2.220
0.260,17.555,4.262,4.262,-72.454,-52.108,2.197
0.261,17.620,4.265,4.265,-72.424,-52.056,2.173
0.263,17.687,4.268,4.268,-72.394,-52.002,2.148
0.264,17.758,4.271,4.271,-72.362,-51.943,2.122
0.266,17.837,4.275,4.275,-72.327,-51.877,2.097
0.267,17.925,4.278,4.278,-72.288,-51.803,2.071
0.269,18.025,4.284,4.284,-72.245,-51.716,2.045
0.270,18.139,4.290,4.290,-72.197,-51.615,2.021
0.272,18.271,4.299,4.299,-72.143,-51.497,1.997
0.273,18.420,4.311,4.311,-72.082,-51.363,1.975
0.275,18.582,4.324,4.324,-72.017,-51.216,1.954
0.276,18.750,4.339,4.339,-71.951,-51.063,1.934
0.278,18.920,4.354,4.354,-71.885,-50.907,1.917
0.279,19.085,4.367,4.367,-71.824,-50.755,1.901
0.281,19.240,4.378,4.378,-71.768,-50.611,1.887
0.282,19.379,4.384,4.384,-71.721,-50.480,1.876
0.284,19.497,4.385,4.385,-71.685,-50.368,1.867
0.285,19.589,4.380,4.380,-71.663,-50.279,1.860
0.287,19.650,4.372,4.372,-71.657,-50.219,1.856
0.288,19.683,4.362,4.362,-71.665,-50.187,1.854
0.290,19.704,4.352,4.352,-71.682,-50.176,1.854
0.291,19.727,4.343,4.343,-71.704,-50.182,1.856
0.292,19.754,4.338,4.338,-71.726,-50.199,1.858
0.294,19.782,4.337,4.337,-71.743,-50.220,1.860
0.295,19.804,4.342,4.342,-71.750,-50.242,1.861
0.297,19.822,4.351,4.351,-71.742,-50.257,1.862
0.298,19.850,4.364,4.364,-71.714,-50.261,1.861
0.300,19.904,4.380,4.380,-71.662,-50.247,1.858
0.301,19.992,4.398,4.398,-71.581,-50.212,1.852
0.303,20.110,4.418,4.418,-71.476,-50.157,1.845
0.304,20.253,4.439,4.439,-71.352,-50.088,1.837
0.306,20.412,4.461,4.461,-71.215,-50.008,1.828
0.307,20.580,4.481,4.481,-71.071,-49.922,1.821
0.309,20.750,4.498,4.498,-70.924,-49.836,1.816
0.310,20.914,4.513,4.513,-70.782,-49.753,1.813
0.312,21.066,4.522,4.522,-70.650,-49.678,1.814
0.313,21.198,4.526,4.526,-70.534,-49.615,1.821
0.315,21.304,4.522,4.522,-70.439,-49.570,1.832
0.316,21.381,4.514,4.514,-70.369,-49.544,1.850
0.318,21.435,4.501,4.501,-70.320,-49.535,1.870
0.319,21.472,4.487,4.487,-70.290,-49.538,1.891
0.321,21.499,4.472,4.472,-70.274,-49.550,1.909
0.322,21.520,4.458,4.458,-70.269,-49.567,1.922
0.323,21.540,4.447,4.447,-70.273,-49.585,1.927
0.325,21.559,4.439,4.439,-70.280,-49.602,1.920
0.326,21.583,4.435,4.435,-70.289,-49.612,1.900
0.328,21.620,4.431,4.431,-70.294,-49.613,1.864
0.329,21.677,4.428,4.428,-70.294,-49.601,1.808
0.331,21.758,4.424,4.424,-70.286,-49.574,1.733
0.332,21.860,4.418,4.418,-70.268,-49.530,1.641
0.334,21.985,4.408,4.408,-70.240,-49.470,1.536
0.335,22.131,4.393,4.393,-70.201,-49.392,1.419
0.337,22.298,4.372,4.372,-70.150,-49.295,1.293
0.338,22.485,4.343,4.343,-70.085,-49.179,1.161
0.340,22.693,4.307,4.307,-70.007,-49.043,1.025
0.341,22.922,4.260,4.260,-69.913,-48.887,0.887
0.343,23.171,4.202,4.202,-69.803,-48.708,0.752
0.344,23.442,4.133,4.133,-69.677,-48.508,0.620
0.346,23.730,4.053,4.053,-69.538,-48.290,0.493
0.347,24.027,3.967,3.967,-69.391,-48.063,0.371
0.349,24.326,3.880,3.880,-69.241,-47.831,0.257
0.350,24.620,3.797,3.797,-69.091,-47.601,0.150
0.352,24.901,3.722,3.722,-68.949,-47.380,0.052
0.353,25.161,3.661,3.661,-68.817,-47.174,-0.037
0.355,25.393,3.617,3.617,-68.700,-46.990,-0.116
0.356,25.589,3.591,3.591,-68.605,-46.833,-0.184
0.357,25.741,3.579,3.579,-68.534,-46.711,-0.240
0.359,25.846,3.577,3.577,-68.491,-46.625,-0.284
0.360,25.912,3.583,3.583,-68.473,-46.571,-0.317
0.362,25.951,3.593,3.593,-68.475,-46.541,-0.341
0.363,25.978,3.604,3.604,-68.492,-46.529,-0.358
0.365,26.010,3.613,3.613,-68.523,-46.528,-0.368
0.366,26.049,3.618,3.618,-68.561,-46.531,-0.374
0.368,26.092,3.619,3.619,-68.604,-46.533,-0.376
0.369,26.136,3.614,3.614,-68.647,-46.525,-0.377
0.371,26.182,3.603,3.603,-68.687,-46.502,-0.378
0.372,26.237,3.586,3.586,-68.719,-46.457,-0.381
0.374,26.310,3.560,3.560,-68.743,-46.389,-0.385
0.375,26.400,3.527,3.527,-68.759,-46.300,-0.392
0.377,26.507,3.487,3.487,-68.770,-46.193,-0.399
0.378,26.628,3.443,3.443,-68.776,-46.073,-0.407
0.380,26.761,3.398,3.398,-68.779,-45.941,-0.416
0.381,26.901,3.355,3.355,-68.780,-45.801,-0.425
0.383,27.046,3.315,3.315,-68.781,-45.656,-0.433
0.384,27.193,3.281,3.281,-68.782,-45.510,-0.440
0.386,27.338,3.254,3.254,-68.787,-45.364,-0.447
0.387,27.480,3.233,3.233,-68.794,-45.223,-0.452
0.388,27.617,3.215,3.215,-68.804,-45.086,-0.457
0.390,27.751,3.196,3.196,-68.815,-44.953,-0.464
0.391,27.880,3.176,3.176,-68.825,-44.825,-0.476
0.393,28.007,3.150,3.150,-68.832,-44.700,-0.494
0.394,28.131,3.117,3.117,-68.834,-44.578,-0.520
0.396,28.254,3.076,3.076,-68.831,-44.460,-0.557
0.397,28.380,3.029,3.029,-68.819,-44.345,-0.606
0.399,28.511,2.979,2.979,-68.797,-44.233,-0.670
0.400,28.650,2.927,2.927,-68.764,-44.124,-0.750
0.402,28.801,2.877,2.877,-68.719,-44.017,-0.847
0.403,28.963,2.831,2.831,-68.665,-43.914,-0.958
0.405,29.131,2.792,2.792,-68.605,-43.816,-1.080
0.406,29.302,2.760,2.760,-68.542,-43.723,-1.210
0.408,29.474,2.735,2.735,-68.478,-43.637,-1.344
0.409,29.641,2.716,2.716,-68.418,-43.559,-1.479
0.411,29.800,2.703,2.703,-68.363,-43.490,-1.612
0.412,29.947,2.695,2.695,-68.318,-43.432,-1.739
0.414,30.078,2.691,2.691,-68.285,-43.384,-1.857
0.415,30.191,2.692,2.692,-68.267,-43.348,-1.963
0.417,30.288,2.694,2.694,-68.263,-43.323,-2.056
0.418,30.373,2.697,2.697,-68.265,-43.304,-2.138
0.419,30.449,2.698,2.698,-68.269,-43.290,-2.213
0.421,30.519,2.695,2.695,-68.268,-43.274,-2.282
0.422,30.588,2.686,2.686,-68.256,-43.255,-2.347
0.424,30.664,2.669,2.669,-68.226,-43.227,-2.411
0.425,30.756,2.643,2.643,-68.174,-43.188,-2.475
0.427,30.875,2.608,2.608,-68.092,-43.134,-2.543
0.428,31.032,2.565,2.565,-67.974,-43.061,-2.616
0.430,31.233,2.517,2.517,-67.817,-42.966,-2.697
0.431,31.472,2.466,2.466,-67.624,-42.852,-2.783
0.433,31.740,2.413,2.413,-67.406,-42.725,-2.874
0.434,32.027,2.360,2.360,-67.171,-42.589,-2.965
0.436,32.321,2.309,2.309,-66.928,-42.450,-3.055
0.437,32.612,2.261,2.261,-66.686,-42.313,-3.141
0.439,32.889,2.216,2.216,-66.455,-42.184,-3.221
0.440,33.142,2.177,2.177,-66.242,-42.066,-3.293
0.442,33.361,2.144,2.144,-66.058,-41.966,-3.354
0.443,33.534,2.118,2.118,-65.910,-41.889,-3.401
0.445,33.656,2.100,2.100,-65.805,-41.837,-3.434
0.446,33.734,2.091,2.091,-65.736,-41.807,-3.455
0.448,33.776,2.089,2.089,-65.697,-41.794,-3.466
0.449,33.791,2.093,2.093,-65.682,-41.794,-3.470
0.451,33.801,2.100,2.100,-65.685,-41.803,-3.470
0.452,33.819,2.110,2.110,-65.698,-41.816,-3.468
0.453,33.841,2.120,2.120,-65.716,-41.829,-3.467
0.455,33.859,2.128,2.128,-65.731,-41.838,-3.470
0.456,33.870,2.134,2.134,-65.738,-41.837,-3.478
0.458,33.893,2.138,2.138,-65.730,-41.824,-3.496
0.459,33.938,2.138,2.138,-65.706,-41.797,-3.522
0.461,33.999,2.136,2.136,-65.670,-41.760,-3.554
0.462,34.073,2.132,2.132,-65.625,-41.715,-3.591
0.464,34.152,2.124,2.124,-65.576,-41.665,-3.629
0.465,34.232,2.114,2.114,-65.527,-41.614,-3.667
0.467,34.308,2.101,2.101,-65.482,-41.564,-3.702
0.468,34.373,2.088,2.088,-65.445,-41.519,-3.731
0.470,34.423,2.077,2.077,-65.419,-41.482,-3.753
0.471,34.454,2.068,2.068,-65.409,-41.456,-3.765
0.473,34.470,2.064,2.064,-65.418,-41.443,-3.765
0.474,34.495,2.066,2.066,-65.441,-41.441,-3.755
0.476,34.530,2.076,2.076,-65.472,-41.447,-3.741
0.477,34.567,2.093,2.093,-65.504,-41.459,-3.725
0.479,34.598,2.111,2.111,-65.530,-41.471,-3.713
0.480,34.616,2.127,2.127,-65.544,-41.481,-3.708
0.482,34.626,2.137,2.137,-65.538,-41.486,-3.714
0.483,34.665,2.137,2.137,-65.505,-41.482,-3.736
0.484,34.745,2.122,2.122,-65.440,-41.466,-3.778
0.486,34.873,2.089,2.089,-65.334,-41.434,-3.844
0.487,35.054,2.041,2.041,-65.186,-41.385,-3.935
0.489,35.281,1.984,1.984,-64.999,-41.324,-4.048
0.490,35.543,1.924,1.924,-64.783,-41.255,-4.179
0.492,35.831,1.867,1.867,-64.542,-41.185,-4.321
0.493,36.136,1.819,1.819,-64.285,-41.117,-4.471
0.495,36.450,1.787,1.787,-64.017,-41.058,-4.623
0.496,36.762,1.775,1.775,-63.747,-41.012,-4.773
0.498,37.066,1.782,1.782,-63.481,-40.985,-4.916
0.499,37.354,1.805,1.805,-63.225,-40.981,-5.048
0.501,37.619,1.843,1.843,-62.987,-41.006,-5.163
0.502,37.864,1.892,1.892,-62.769,-41.059,-5.261
0.504,38.091,1.949,1.949,-62.572,-41.130,-5.348
0.505,38.303,2.012,2.012,-62.394,-41.214,-5.428
0.507,38.500,2.078,2.078,-62.236,-41.301,-5.506
0.508,38.682,2.145,2.145,-62.095,-41.384,-5.587
0.510,38.849,2.209,2.209,-61.973,-41.455,-5.676
0.511,39.003,2.269,2.269,-61.868,-41.505,-5.777
0.513,39.153,2.321,2.321,-61.779,-41.528,-5.896
0.514,39.311,2.363,2.363,-61.707,-41.514,-6.036
0.516,39.496,2.393,2.393,-61.650,-41.458,-6.203
0.517,39.712,2.408,2.408,-61.609,-41.363,-6.391
0.518,39.953,2.412,2.412,-61.583,-41.235,-6.595
0.520,40.215,2.407,2.407,-61.574,-41.080,-6.806
0.521,40.489,2.396,2.396,-61.582,-40.907,-7.018
0.523,40.767,2.380,2.380,-61.607,-40.722,-7.224
0.524,41.041,2.363,2.363,-61.649,-40.531,-7.416
0.526,41.304,2.347,2.347,-61.709,-40.341,-7.588
0.527,41.548,2.333,2.333,-61.787,-40.160,-7.732
0.529,41.769,2.323,2.323,-61.883,-39.994,-7.842
0.530,41.968,2.316,2.316,-61.997,-39.847,-7.913
0.532,42.153,2.314,2.314,-62.124,-39.718,-7.950
0.533,42.330,2.317,2.317,-62.259,-39.605,-7.960
0.535,42.501,2.326,2.326,-62.397,-39.504,-7.949
0.536,42.668,2.341,2.341,-62.534,-39.413,-7.922
0.538,42.826,2.361,2.361,-62.664,-39.329,-7.887
0.539,42.974,2.385,2.385,-62.783,-39.250,-7.848
0.541,43.107,2.411,2.411,-62.886,-39.173,-7.813
0.542,43.222,2.436,2.436,-62.967,-39.096,-7.786
0.544,43.321,2.459,2.459,-63.022,-39.016,-7.775
0.545,43.410,2.478,2.478,-63.051,-38.931,-7.781
0.547,43.501,2.491,2.491,-63.056,-38.843,-7.802
0.548,43.598,2.498,2.498,-63.042,-38.752,-7.834
0.549,43.704,2.502,2.502,-63.013,-38.660,-7.876
0.551,43.817,2.504,2.504,-62.971,-38.566,-7.924
0.552,43.935,2.505,2.505,-62.921,-38.473,-7.977
0.554,44.056,2.508,2.508,-62.866,-38.379,-8.030
0.555,44.176,2.513,2.513,-62.810,-38.287,-8.082
0.557,44.291,2.523,2.523,-62.757,-38.197,-8.131
0.558,44.399,2.537,2.537,-62.711,-38.109,-8.172
0.560,44.500,2.554,2.554,-62.670,-38.024,-8.208
0.561,44.594,2.574,2.574,-62.636,-37.941,-8.238
0.563,44.683,2.596,2.596,-62.608,-37.861,-8.263
0.564,44.767,2.620,2.620,-62.585,-37.783,-8.285
0.566,44.848,2.644,2.644,-62.567,-37.706,-8.303
0.567,44.926,2.669,2.669,-62.553,-37.631,-8.320
0.569,45.003,2.693,2.693,-62.544,-37.557,-8.336
0.570,45.078,2.717,2.717,-62.537,-37.484,-8.351
0.572,45.152,2.739,2.739,-62.534,-37.411,-8.367
0.573,45.225,2.760,2.760,-62.533,-37.340,-8.384
0.575,45.297,2.780,2.780,-62.534,-37.271,-8.402
0.576,45.366,2.797,2.797,-62.536,-37.204,-8.420
0.578,45.431,2.812,2.812,-62.541,-37.142,-8.438
0.579,45.490,2.825,2.825,-62.546,-37.085,-8.454
0.581,45.543,2.837,2.837,-62.552,-37.035,-8.469
0.582,45.587,2.847,2.847,-62.558,-36.992,-8.481
0.583,45.623,2.857,2.857,-62.563,-36.958,-8.490
0.585,45.647,2.867,2.867,-62.569,-36.935,-8.495
0.586,45.661,2.878,2.878,-62.573,-36.922,-8.496
0.588,45.666,2.888,2.888,-62.576,-36.920,-8.492
0.589,45.674,2.899,2.899,-62.576,-36.924,-8.486
0.591,45.687,2.910,2.910,-62.572,-36.932,-8.476
0.592,45.704,2.919,2.919,-62.562,-36.940,-8.465
0.594,45.724,2.927,2.927,-62.546,-36.944,-8.453
0.595,45.752,2.934,2.934,-62.522,-36.941,-8.440
0.597,45.790,2.938,2.938,-62.488,-36.928,-8.428
0.598,45.842,2.940,2.940,-62.444,-36.902,-8.418
0.600,45.913,2.941,2.941,-62.389,-36.858,-8.410
0.601,46.007,2.942,2.942,-62.320,-36.795,-8.405
0.603,46.121,2.944,2.944,-62.239,-36.714,-8.402
0.604,46.253,2.947,2.947,-62.147,-36.620,-8.400
0.606,46.397,2.954,2.954,-62.044,-36.519,-8.397
0.607,46.551,2.963,2.963,-61.931,-36.414,-8.393
0.609,46.710,2.977,2.977,-61.810,-36.311,-8.385
0.610,46.872,2.993,2.993,-61.680,-36.215,-8.373
0.612,47.034,3.011,3.011,-61.544,-36.129,-8.356
0.613,47.194,3.030,3.030,-61.402,-36.060,-8.331
0.614,47.353,3.051,3.051,-61.255,-36.011,-8.297
0.616,47.512,3.071,3.071,-61.103,-35.985,-8.255
0.617,47.674,3.091,3.091,-60.949,-35.979,-8.207
0.619,47.839,3.108,3.108,-60.792,-35.987,-8.156
0.620,48.006,3.122,3.122,-60.634,-36.007,-8.106
